#DatasetIndex		#Wave		#Intensity
0.000000	699.292969	12570.952148
0.000000	700.611694	12468.566406
0.000000	701.930420	12512.297852
0.000000	703.249146	12554.140625
0.000000	704.567871	12544.718750
0.000000	705.886597	12529.429688
0.000000	707.205322	12585.253906
0.000000	708.524048	12709.658203
0.000000	709.842773	12641.383789
0.000000	711.161499	12670.478516
0.000000	712.480225	12710.751953
0.000000	713.798950	12681.147461
0.000000	715.117676	12708.442383
0.000000	716.436401	12853.851563
0.000000	717.755127	12785.866211
0.000000	719.073853	12913.321289
0.000000	720.392578	12983.535156
0.000000	721.711304	12878.895508
0.000000	723.030029	12837.791992
0.000000	724.348755	12926.597656
0.000000	725.667480	13023.575195
0.000000	726.986206	12983.150391
0.000000	728.304932	12965.440430
0.000000	729.623657	12994.555664
0.000000	730.942383	13029.630859
0.000000	732.261108	13014.875000
0.000000	733.579834	13051.727539
0.000000	734.898560	13104.924805
0.000000	736.217285	13025.912109
0.000000	737.536011	13111.527344
0.000000	738.854736	13089.569336
0.000000	740.173462	13062.809570
0.000000	741.492188	13112.779297
0.000000	742.810913	13130.343750
0.000000	744.129639	13098.671875
0.000000	745.448364	13082.618164
0.000000	746.767090	13054.676758
0.000000	748.085815	13068.097656
0.000000	749.404541	13152.039063
0.000000	750.723267	13240.414063
0.000000	752.041992	13268.854492
0.000000	753.360718	13271.042969
0.000000	754.679443	13283.620117
0.000000	755.998169	13253.500977
0.000000	757.316895	13069.441406
0.000000	758.635620	13313.599609
0.000000	759.954346	13169.068359
0.000000	761.273071	13154.915039
0.000000	762.591797	13308.100586
0.000000	763.910522	13351.029297
0.000000	765.229248	13176.365234
0.000000	766.547974	13314.119141
0.000000	767.866699	13290.594727
0.000000	769.185425	13341.087891
0.000000	770.504150	13292.301758
0.000000	771.822876	13321.096680
0.000000	773.141602	13417.829102
0.000000	774.460327	13461.989258
0.000000	775.779053	13423.760742
0.000000	777.097778	13448.786133
0.000000	778.416504	13440.158203
0.000000	779.735229	13558.741211
0.000000	781.053955	13531.658203
0.000000	782.372681	13415.433594
0.000000	783.691406	13376.735352
0.000000	785.010132	13453.598633
0.000000	786.328857	13458.565430
0.000000	787.647583	13608.202148
0.000000	788.966309	13706.486328
0.000000	790.285034	13647.583008
0.000000	791.603760	13623.094727
0.000000	792.922485	13638.652344
0.000000	794.241211	13659.062500
0.000000	795.559937	13691.861328
0.000000	796.878662	13644.963867
0.000000	798.197388	13586.848633
0.000000	799.516113	13748.692383
0.000000	800.834839	13716.537109
0.000000	802.153564	13710.807617
0.000000	803.472290	13739.324219
0.000000	804.791016	13750.473633
0.000000	806.109741	13851.674805
0.000000	807.428467	13791.935547
0.000000	808.747192	13904.111328
0.000000	810.065918	13931.660156
0.000000	811.384644	13890.725586
0.000000	812.703369	13971.012695
0.000000	814.022095	14080.515625
0.000000	815.340820	14050.678711
0.000000	816.659546	14021.854492
0.000000	817.978271	14011.114258
0.000000	819.296997	14036.302734
0.000000	820.615723	13857.913086
0.000000	821.934448	14076.459961
0.000000	823.253174	14126.894531
0.000000	824.571899	13995.909180
0.000000	825.890625	14109.368164
0.000000	827.209351	14052.305664
0.000000	828.528076	14087.825195
0.000000	829.846802	14038.992188
0.000000	831.165527	14034.315430
0.000000	832.484253	14157.409180
0.000000	833.802979	14145.217773
0.000000	835.121704	14137.228516
0.000000	836.440430	14366.027344
0.000000	837.759155	14233.045898
0.000000	839.077881	14254.180664
0.000000	840.396606	14146.726563
0.000000	841.715332	14223.762695
0.000000	843.034058	14298.810547
0.000000	844.352783	14359.322266
0.000000	845.671509	14349.106445
0.000000	846.990234	14230.436523
0.000000	848.308960	14258.419922
0.000000	849.627686	14263.616211
0.000000	850.946411	14146.344727
0.000000	852.265137	14095.638672
0.000000	853.583862	14177.532227
0.000000	854.902588	14294.982422
0.000000	856.221313	14363.651367
0.000000	857.540039	14398.594727
0.000000	858.858765	14464.260742
0.000000	860.177490	14521.975586
0.000000	861.496216	14419.219727
0.000000	862.814941	14504.820313
0.000000	864.133667	14408.541992
0.000000	865.452393	14430.282227
0.000000	866.771118	14595.388672
0.000000	868.089844	14609.711914
0.000000	869.408569	14482.705078
0.000000	870.727295	14512.800781
0.000000	872.046021	14784.541016
0.000000	873.364746	14641.641602
0.000000	874.683472	14579.960938
0.000000	876.002197	14576.421875
0.000000	877.320923	14651.813477
0.000000	878.639648	14797.496094
0.000000	879.958374	14792.123047
0.000000	881.277100	14740.966797
0.000000	882.595825	14812.217773
0.000000	883.914551	14751.073242
0.000000	885.233276	14813.664063
0.000000	886.552002	14862.691406
0.000000	887.870728	14951.283203
0.000000	889.189453	15027.807617
0.000000	890.508179	14916.930664
0.000000	891.826904	15020.853516
0.000000	893.145630	15042.372070
0.000000	894.464355	14979.281250
0.000000	895.783081	14966.539063
0.000000	897.101807	14920.294922
0.000000	898.420532	14958.230469
0.000000	899.739258	15159.041992
0.000000	901.057983	15441.801758
0.000000	902.376709	15686.078125
0.000000	903.695435	15868.324219
0.000000	905.014160	16075.152344
0.000000	906.332886	16282.620117
0.000000	907.651611	17142.937500
0.000000	908.970337	16978.177734
0.000000	910.289063	16322.722656
0.000000	911.607788	16355.350586
0.000000	912.926514	16258.188477
0.000000	914.245239	15185.355469
0.000000	915.563965	15150.873047
0.000000	916.882690	15240.310547
0.000000	918.201416	15257.996094
0.000000	919.520142	15289.663086
0.000000	920.838867	15326.744141
0.000000	922.157593	15345.323242
0.000000	923.476318	15371.504883
0.000000	924.795044	15425.195313
0.000000	926.113770	15438.050781
0.000000	927.432495	15449.474609
0.000000	928.751221	15395.484375
0.000000	930.069946	15331.872070
0.000000	931.388672	15336.082031
0.000000	932.707397	15376.685547
0.000000	934.026123	15429.029297
0.000000	935.344849	15491.875977
0.000000	936.663574	15395.248047
0.000000	937.982300	15409.615234
0.000000	939.301025	15297.397461
0.000000	940.619751	15610.700195
0.000000	941.938477	15675.344727
0.000000	943.257202	15527.274414
0.000000	944.575928	15431.784180
0.000000	945.894653	15500.879883
0.000000	947.213379	15604.675781
0.000000	948.532104	15387.791016
0.000000	949.850830	15569.225586
0.000000	951.169556	15397.626953
0.000000	952.488281	15630.320313
0.000000	953.807007	15694.162109
0.000000	955.125732	15600.417969
0.000000	956.444458	15578.950195
0.000000	957.763184	15645.824219
0.000000	959.081909	15667.848633
0.000000	960.400635	15778.271484
0.000000	961.719360	15819.650391
0.000000	963.038086	15683.910156
0.000000	964.356812	15801.069336
0.000000	965.675537	15836.136719
0.000000	966.994263	15714.303711
0.000000	968.312988	15672.203125
0.000000	969.631714	15816.476563
0.000000	970.950439	15853.531250
0.000000	972.269165	15808.193359
0.000000	973.587891	15879.731445
0.000000	974.906616	15889.990234
0.000000	976.225342	15998.056641
0.000000	977.544067	16020.516602
0.000000	978.862793	15979.695313
0.000000	980.181519	16042.352539
0.000000	981.500244	16190.323242
0.000000	982.818970	16155.313477
0.000000	984.137695	16181.983398
0.000000	985.456421	16210.168945
0.000000	986.775146	16145.148438
0.000000	988.093872	16158.214844
0.000000	989.412598	16206.762695
0.000000	990.731323	16223.833984
0.000000	992.050049	16292.731445
0.000000	993.368774	16401.142578
0.000000	994.687500	16307.573242
0.000000	996.006226	16236.372070
0.000000	997.324951	16299.320313
0.000000	998.643677	16444.265625
0.000000	999.962402	16505.787109
0.000000	1001.281128	16480.017578
0.000000	1002.599854	16458.441406
0.000000	1003.918579	16412.505859
0.000000	1005.237305	16326.769531
0.000000	1006.556030	16341.751953
0.000000	1007.874756	16529.742188
0.000000	1009.193481	16659.435547
0.000000	1010.512207	16569.037109
0.000000	1011.830933	16486.531250
0.000000	1013.149658	16508.746094
0.000000	1014.468384	16631.388672
0.000000	1015.787109	16676.496094
0.000000	1017.105835	16620.746094
0.000000	1018.424561	16607.253906
0.000000	1019.743286	16590.667969
0.000000	1021.062012	16640.232422
0.000000	1022.380737	16671.750000
0.000000	1023.699463	16587.183594
0.000000	1025.018188	16822.144531
0.000000	1026.336914	16818.023438
0.000000	1027.655640	16716.222656
0.000000	1028.974365	16717.203125
0.000000	1030.293091	16791.078125
0.000000	1031.611816	16894.277344
0.000000	1032.930542	16856.597656
0.000000	1034.249268	16888.232422
0.000000	1035.567993	16892.318359
0.000000	1036.886719	16640.109375
0.000000	1038.205444	16727.298828
0.000000	1039.524170	16798.373047
0.000000	1040.842896	16845.304688
0.000000	1042.161621	16886.908203
0.000000	1043.480347	16873.019531
0.000000	1044.799072	17064.966797
0.000000	1046.117798	16844.214844
0.000000	1047.436523	16891.251953
0.000000	1048.755249	16911.710938
0.000000	1050.073975	16891.773438
0.000000	1051.392700	16946.443359
0.000000	1052.711426	16895.669922
0.000000	1054.030151	16874.285156
0.000000	1055.348877	16971.277344
0.000000	1056.667603	17000.773438
0.000000	1057.986328	17055.437500
0.000000	1059.305054	17020.279297
0.000000	1060.623779	17026.117188
0.000000	1061.942505	17166.337891
0.000000	1063.261230	17078.892578
0.000000	1064.579956	17076.916016
0.000000	1065.898682	17196.404297
0.000000	1067.217407	17183.566406
0.000000	1068.536133	17041.414063
0.000000	1069.854858	17111.843750
0.000000	1071.173584	17337.498047
0.000000	1072.492310	17345.035156
0.000000	1073.811035	17455.410156
0.000000	1075.129761	17290.886719
0.000000	1076.448486	17280.423828
0.000000	1077.767212	17405.562500
0.000000	1079.085938	17462.281250
0.000000	1080.404663	17463.884766
0.000000	1081.723389	17513.089844
0.000000	1083.042114	17546.328125
0.000000	1084.360840	17497.636719
0.000000	1085.679565	17687.326172
0.000000	1086.998291	17496.054688
0.000000	1088.317017	17588.183594
0.000000	1089.635742	17564.675781
0.000000	1090.954468	17569.238281
0.000000	1092.273193	17825.595703
0.000000	1093.591919	17973.460938
0.000000	1094.910645	17836.667969
0.000000	1096.229370	17771.378906
0.000000	1097.548096	17796.212891
0.000000	1098.866821	17892.175781
0.000000	1100.185547	17873.460938
0.000000	1101.504272	17831.701172
0.000000	1102.822998	17954.892578
0.000000	1104.141724	17915.962891
0.000000	1105.460449	18009.253906
0.000000	1106.779175	18123.958984
0.000000	1108.097900	18042.572266
0.000000	1109.416626	17939.845703
0.000000	1110.735352	18081.931641
0.000000	1112.054077	18141.783203
0.000000	1113.372803	17904.167969
0.000000	1114.691528	17988.318359
0.000000	1116.010254	18121.771484
0.000000	1117.328979	18154.679688
0.000000	1118.647705	18079.865234
0.000000	1119.966431	18054.917969
0.000000	1121.285156	18145.396484
0.000000	1122.603882	18179.865234
0.000000	1123.922607	18085.328125
0.000000	1125.241333	18224.253906
0.000000	1126.560059	18244.687500
0.000000	1127.878784	18140.238281
0.000000	1129.197510	18270.433594
0.000000	1130.516235	18207.078125
0.000000	1131.834961	18194.138672
0.000000	1133.153687	18261.925781
0.000000	1134.472412	18238.902344
0.000000	1135.791138	18256.123047
0.000000	1137.109863	18408.373047
0.000000	1138.428589	18357.681641
0.000000	1139.747314	18218.187500
0.000000	1141.066040	18499.681641
0.000000	1142.384766	18284.037109
0.000000	1143.703491	18243.871094
0.000000	1145.022217	18257.113281
0.000000	1146.340942	18361.500000
0.000000	1147.659668	18471.394531
0.000000	1148.978394	18457.349609
0.000000	1150.297119	18361.255859
0.000000	1151.615845	18346.611328
0.000000	1152.934570	18433.464844
0.000000	1154.253296	18454.505859
0.000000	1155.572021	18359.277344
0.000000	1156.890747	18464.279297
0.000000	1158.209473	18346.779297
0.000000	1159.528198	18528.550781
0.000000	1160.846924	18558.746094
0.000000	1162.165649	18486.044922
0.000000	1163.484375	18471.136719
0.000000	1164.803101	18569.261719
0.000000	1166.121826	18613.697266
0.000000	1167.440552	18498.218750
0.000000	1168.759277	18795.601563
0.000000	1170.078003	18623.101563
0.000000	1171.396729	18489.224609
0.000000	1172.715454	18599.898438
0.000000	1174.034180	18758.125000
0.000000	1175.352905	18706.994141
0.000000	1176.671631	18689.464844
0.000000	1177.990356	18726.406250
0.000000	1179.309082	18704.902344
0.000000	1180.627808	18726.496094
0.000000	1181.946533	18853.947266
0.000000	1183.265259	18746.300781
0.000000	1184.583984	19007.263672
0.000000	1185.902710	18983.513672
0.000000	1187.221436	18835.958984
0.000000	1188.540161	19014.482422
0.000000	1189.858887	19044.707031
0.000000	1191.177612	19035.332031
0.000000	1192.496338	19055.994141
0.000000	1193.815063	19144.884766
0.000000	1195.133789	19175.640625
0.000000	1196.452515	19073.558594
0.000000	1197.771240	19073.044922
0.000000	1199.089966	19008.285156
0.000000	1200.408691	19173.722656
0.000000	1201.727417	19254.503906
0.000000	1203.046143	19226.193359
0.000000	1204.364868	19356.939453
0.000000	1205.683594	19270.248047
0.000000	1207.002319	19351.945313
0.000000	1208.321045	19337.365234
0.000000	1209.639771	19203.589844
0.000000	1210.958496	19206.058594
0.000000	1212.277222	19270.992188
0.000000	1213.595947	19306.412109
0.000000	1214.914673	19250.250000
0.000000	1216.233398	19205.681641
0.000000	1217.552124	19210.250000
0.000000	1218.870850	19310.181641
0.000000	1220.189575	19482.316406
0.000000	1221.508301	19581.228516
0.000000	1222.827026	19498.291016
0.000000	1224.145752	19457.318359
0.000000	1225.464478	19406.845703
0.000000	1226.783203	19427.095703
0.000000	1228.101929	19628.083984
0.000000	1229.420654	19428.910156
0.000000	1230.739380	19715.250000
0.000000	1232.058105	19494.578125
0.000000	1233.376831	19604.941406
0.000000	1234.695557	19547.033203
0.000000	1236.014282	19366.392578
0.000000	1237.333008	19363.880859
0.000000	1238.651733	19464.892578
0.000000	1239.970459	19588.822266
0.000000	1241.289185	19637.419922
0.000000	1242.607910	19648.626953
0.000000	1243.926636	19687.240234
0.000000	1245.245361	19607.287109
0.000000	1246.564087	19576.402344
0.000000	1247.882813	19627.263672
0.000000	1249.201538	19492.519531
0.000000	1250.520264	19578.599609
0.000000	1251.838989	19536.781250
0.000000	1253.157715	19588.371094
0.000000	1254.476440	19774.457031
0.000000	1255.795166	19745.916016
0.000000	1257.113892	19551.537109
0.000000	1258.432617	19537.705078
0.000000	1259.751343	19739.287109
0.000000	1261.070068	19819.509766
0.000000	1262.388794	19696.378906
0.000000	1263.707520	19830.593750
0.000000	1265.026245	19855.763672
0.000000	1266.344971	19765.535156
0.000000	1267.663696	19849.123047
0.000000	1268.982422	19944.867188
0.000000	1270.301147	19825.089844
0.000000	1271.619873	19806.423828
0.000000	1272.938599	19712.796875
0.000000	1274.257324	19838.792969
0.000000	1275.576050	19995.865234
0.000000	1276.894775	19869.191406
0.000000	1278.213501	19938.564453
0.000000	1279.532227	19866.902344
0.000000	1280.850952	19993.322266
0.000000	1282.169678	20070.828125
0.000000	1283.488403	20098.460938
0.000000	1284.807129	20072.279297
0.000000	1286.125854	20023.869141
0.000000	1287.444580	20011.462891
0.000000	1288.763306	20229.865234
0.000000	1290.082031	20265.882813
0.000000	1291.400757	20210.482422
0.000000	1292.719482	20269.671875
0.000000	1294.038208	20404.863281
0.000000	1295.356934	20450.382813
0.000000	1296.675659	20122.562500
0.000000	1297.994385	20327.357422
0.000000	1299.313110	20410.501953
0.000000	1300.631836	20296.820313
0.000000	1301.950562	20370.373047
0.000000	1303.269287	20500.257813
0.000000	1304.588013	20481.099609
0.000000	1305.906738	20410.535156
0.000000	1307.225464	20482.353516
0.000000	1308.544189	20530.392578
0.000000	1309.862915	20546.552734
0.000000	1311.181641	20567.509766
0.000000	1312.500366	20526.498047
0.000000	1313.819092	20591.095703
0.000000	1315.137817	20762.408203
0.000000	1316.456543	20569.013672
0.000000	1317.775269	20591.892578
0.000000	1319.093994	20596.949219
0.000000	1320.412720	20656.742188
0.000000	1321.731445	20791.798828
0.000000	1323.050171	20628.041016
0.000000	1324.368896	20619.640625
0.000000	1325.687622	20645.962891
0.000000	1327.006348	20736.394531
0.000000	1328.325073	20813.175781
0.000000	1329.643799	20756.966797
0.000000	1330.962524	20747.203125
0.000000	1332.281250	20863.425781
0.000000	1333.599976	20891.970703
0.000000	1334.918701	20983.570313
0.000000	1336.237427	20727.255859
0.000000	1337.556152	20884.892578
0.000000	1338.874878	20832.191406
0.000000	1340.193604	20758.175781
0.000000	1341.512329	21008.777344
0.000000	1342.831055	21065.119141
0.000000	1344.149780	20942.652344
0.000000	1345.468506	20996.189453
0.000000	1346.787231	21024.978516
0.000000	1348.105957	20907.791016
0.000000	1349.424683	20914.763672
0.000000	1350.743408	20969.392578
0.000000	1352.062134	20906.892578
0.000000	1353.380859	21150.873047
0.000000	1354.699585	21053.953125
0.000000	1356.018311	20881.054688
0.000000	1357.337036	20753.693359
0.000000	1358.655762	20835.171875
0.000000	1359.974487	20958.361328
0.000000	1361.293213	21020.658203
0.000000	1362.611938	21071.896484
0.000000	1363.930664	20993.724609
0.000000	1365.249390	21062.421875
0.000000	1366.568115	21116.234375
0.000000	1367.886841	20962.277344
0.000000	1369.205566	20968.285156
0.000000	1370.524292	21175.617188
0.000000	1371.843018	21111.314453
0.000000	1373.161743	21093.710938
0.000000	1374.480469	20983.595703
0.000000	1375.799194	21197.583984
0.000000	1377.117920	21223.736328
0.000000	1378.436646	21123.072266
0.000000	1379.755371	21195.218750
0.000000	1381.074097	21270.953125
0.000000	1382.392822	21226.003906
0.000000	1383.711548	21179.714844
0.000000	1385.030273	21185.580078
0.000000	1386.348999	21252.369141
0.000000	1387.667725	21330.003906
0.000000	1388.986450	21420.361328
0.000000	1390.305176	21529.609375
0.000000	1391.623901	21458.957031
0.000000	1392.942627	21291.562500
0.000000	1394.261353	21394.990234
0.000000	1395.580078	21612.017578
0.000000	1396.898804	21510.787109
0.000000	1398.217529	21398.046875
0.000000	1399.536255	21772.435547
0.000000	1400.854980	21755.855469
0.000000	1402.173706	21591.304688
0.000000	1403.492432	21632.046875
0.000000	1404.811157	21761.560547
0.000000	1406.129883	21721.625000
0.000000	1407.448608	21731.166016
0.000000	1408.767334	21731.384766
0.000000	1410.086060	21738.945313
0.000000	1411.404785	21910.890625
0.000000	1412.723511	21755.037109
0.000000	1414.042236	21897.414063
0.000000	1415.360962	21861.089844
0.000000	1416.679688	22101.882813
0.000000	1417.998413	21859.617188
0.000000	1419.317139	21889.613281
0.000000	1420.635864	21843.937500
0.000000	1421.954590	21898.169922
0.000000	1423.273315	22050.916016
0.000000	1424.592041	21950.101563
0.000000	1425.910767	22017.927734
0.000000	1427.229492	21988.652344
0.000000	1428.548218	21978.396484
0.000000	1429.866943	21962.029297
0.000000	1431.185669	22001.351563
0.000000	1432.504395	22263.890625
0.000000	1433.823120	22379.707031
0.000000	1435.141846	22352.111328
0.000000	1436.460571	22334.908203
0.000000	1437.779297	22285.843750
0.000000	1439.098022	22253.216797
0.000000	1440.416748	22145.742188
0.000000	1441.735474	22301.494141
0.000000	1443.054199	22353.083984
0.000000	1444.372925	22129.103516
0.000000	1445.691650	22113.339844
0.000000	1447.010376	22212.576172
0.000000	1448.329102	22358.021484
0.000000	1449.647827	22263.076172
0.000000	1450.966553	22358.044922
0.000000	1452.285278	22432.029297
0.000000	1453.604004	22446.855469
0.000000	1454.922729	22556.761719
0.000000	1456.241455	22432.951172
0.000000	1457.560181	22343.460938
0.000000	1458.878906	22391.447266
0.000000	1460.197632	22289.273438
0.000000	1461.516357	22344.921875
0.000000	1462.835083	22434.203125
0.000000	1464.153809	22397.296875
0.000000	1465.472534	22579.716797
0.000000	1466.791260	22522.041016
0.000000	1468.109985	22515.681641
0.000000	1469.428711	22563.775391
0.000000	1470.747437	22544.597656
0.000000	1472.066162	22471.033203
0.000000	1473.384888	22462.621094
0.000000	1474.703613	22500.968750
0.000000	1476.022339	22506.869141
0.000000	1477.341064	22613.693359
0.000000	1478.659790	22692.076172
0.000000	1479.978516	22523.947266
0.000000	1481.297241	22452.558594
0.000000	1482.615967	22587.230469
0.000000	1483.934692	22626.048828
0.000000	1485.253418	22689.113281
0.000000	1486.572144	22678.712891
0.000000	1487.890869	22753.376953
0.000000	1489.209595	22480.988281
0.000000	1490.528320	22865.787109
0.000000	1491.847046	22743.906250
0.000000	1493.165771	22866.248047
0.000000	1494.484497	22816.718750
0.000000	1495.803223	22700.246094
0.000000	1497.121948	22962.861328
0.000000	1498.440674	22903.007813
0.000000	1499.759399	22750.140625
0.000000	1501.078125	22690.707031
0.000000	1502.396851	22804.017578
0.000000	1503.715576	22898.750000
0.000000	1505.034302	22839.861328
0.000000	1506.353027	22929.552734
0.000000	1507.671753	23042.234375
0.000000	1508.990479	23129.337891
0.000000	1510.309204	23171.376953
0.000000	1511.627930	23488.515625
0.000000	1512.946655	23298.083984
0.000000	1514.265381	23301.019531
0.000000	1515.584106	23179.707031
0.000000	1516.902832	22847.074219
0.000000	1518.221558	23592.708984
0.000000	1519.540283	23448.968750
0.000000	1520.859009	23359.083984
0.000000	1522.177734	23557.701172
0.000000	1523.496460	23379.496094
0.000000	1524.815186	23347.523438
0.000000	1526.133911	23342.322266
0.000000	1527.452637	23452.535156
0.000000	1528.771362	23585.681641
0.000000	1530.090088	23660.074219
0.000000	1531.408813	23578.664063
0.000000	1532.727539	23508.384766
0.000000	1534.046265	23738.107422
0.000000	1535.364990	23791.373047
0.000000	1536.683716	23855.980469
0.000000	1538.002441	23669.257813
0.000000	1539.321167	23728.050781
0.000000	1540.639893	23792.925781
0.000000	1541.958618	23925.572266
0.000000	1543.277344	23825.105469
0.000000	1544.596069	23884.472656
0.000000	1545.914795	23889.128906
0.000000	1547.233521	23938.820313
0.000000	1548.552246	23777.277344
0.000000	1549.870972	23796.351563
0.000000	1551.189697	24038.343750
0.000000	1552.508423	24041.914063
0.000000	1553.827148	23946.238281
0.000000	1555.145874	23960.660156
0.000000	1556.464600	24001.037109
0.000000	1557.783325	24023.857422
0.000000	1559.102051	24022.734375
0.000000	1560.420776	24064.728516
0.000000	1561.739502	24147.574219
0.000000	1563.058228	24083.187500
0.000000	1564.376953	23952.326172
0.000000	1565.695679	23993.140625
0.000000	1567.014404	24034.144531
0.000000	1568.333130	23969.367188
0.000000	1569.651855	24019.082031
0.000000	1570.970581	23994.134766
0.000000	1572.289307	24078.501953
0.000000	1573.608032	23895.304688
0.000000	1574.926758	24087.648438
0.000000	1576.245483	24118.775391
0.000000	1577.564209	23937.724609
0.000000	1578.882935	23999.917969
0.000000	1580.201660	24112.546875
0.000000	1581.520386	24163.781250
0.000000	1582.839111	24060.898438
0.000000	1584.157837	23986.427734
0.000000	1585.476563	23919.683594
0.000000	1586.795288	24031.431641
0.000000	1588.114014	24143.427734
0.000000	1589.432739	24161.152344
0.000000	1590.751465	24218.437500
0.000000	1592.070190	24209.152344
0.000000	1593.388916	24127.564453
0.000000	1594.707642	24236.382813
0.000000	1596.026367	24304.451172
0.000000	1597.345093	24166.753906
0.000000	1598.663818	24238.951172
0.000000	1599.982544	24014.146484
0.000000	1601.301270	24331.898438
0.000000	1602.619995	24089.070313
0.000000	1603.938721	24337.791016
0.000000	1605.257446	24217.810547
0.000000	1606.576172	24149.029297
0.000000	1607.894897	24623.898438
0.000000	1609.213623	24392.417969
0.000000	1610.532349	24404.634766
0.000000	1611.851074	24315.814453
0.000000	1613.169800	24378.453125
0.000000	1614.488525	24482.802734
0.000000	1615.807251	24358.185547
0.000000	1617.125977	24266.214844
0.000000	1618.444702	24663.046875
0.000000	1619.763428	24656.669922
0.000000	1621.082153	24502.070313
0.000000	1622.400879	24572.335938
0.000000	1623.719604	24849.775391
0.000000	1625.038330	24831.064453
0.000000	1626.357056	24752.144531
0.000000	1627.675781	24839.761719
0.000000	1628.994507	24864.003906
0.000000	1630.313232	24893.242188
0.000000	1631.631958	24821.705078
0.000000	1632.950684	24750.800781
0.000000	1634.269409	24968.609375
0.000000	1635.588135	25028.082031
0.000000	1636.906860	25123.980469
0.000000	1638.225586	24880.460938
0.000000	1639.544312	24764.408203
0.000000	1640.863037	24994.873047
0.000000	1642.181763	25205.474609
0.000000	1643.500488	25253.476563
0.000000	1644.819214	25245.884766
0.000000	1646.137939	25418.775391
0.000000	1647.456665	25396.931641
0.000000	1648.775391	25287.203125
0.000000	1650.094116	25250.355469
0.000000	1651.412842	25177.511719
0.000000	1652.731567	25160.130859
0.000000	1654.050293	25551.220703
0.000000	1655.369019	25493.726563
0.000000	1656.687744	25545.656250
0.000000	1658.006470	25530.101563
0.000000	1659.325195	25442.324219
0.000000	1660.643921	25622.826172
0.000000	1661.962646	25612.867188
0.000000	1663.281372	25587.556641
0.000000	1664.600098	25506.355469
0.000000	1665.918823	25465.062500
0.000000	1667.237549	25354.750000
0.000000	1668.556274	25398.181641
0.000000	1669.875000	25515.714844
0.000000	1671.193726	25440.742188
0.000000	1672.512451	25526.978516
0.000000	1673.831177	25506.751953
0.000000	1675.149902	25431.562500
0.000000	1676.468628	25489.603516
0.000000	1677.787354	25471.525391
0.000000	1679.106079	25472.166016
0.000000	1680.424805	25546.037109
0.000000	1681.743530	25526.378906
0.000000	1683.062256	25435.505859
0.000000	1684.380981	25687.558594
0.000000	1685.699707	25572.087891
0.000000	1687.018433	25545.511719
0.000000	1688.337158	25519.384766
0.000000	1689.655884	25591.771484
0.000000	1690.974609	25852.867188
0.000000	1692.293335	25543.218750
0.000000	1693.612061	25752.023438
0.000000	1694.930786	25528.964844
0.000000	1696.249512	25539.027344
0.000000	1697.568237	25395.660156
0.000000	1698.886963	25609.320313
0.000000	1700.205688	25486.203125
0.000000	1701.524414	25635.597656
0.000000	1702.843140	25652.371094
0.000000	1704.161865	25747.626953
0.000000	1705.480591	25673.142578
0.000000	1706.799316	25580.087891
0.000000	1708.118042	25587.130859
0.000000	1709.436768	25766.427734
0.000000	1710.755493	25688.388672
0.000000	1712.074219	25613.742188
0.000000	1713.392944	25571.417969
0.000000	1714.711670	25665.763672
0.000000	1716.030396	25669.888672
0.000000	1717.349121	25720.136719
0.000000	1718.667847	25853.542969
0.000000	1719.986572	25739.726563
0.000000	1721.305298	25687.406250
0.000000	1722.624023	25688.505859
0.000000	1723.942749	25676.923828
0.000000	1725.261475	25828.890625
0.000000	1726.580200	25868.375000
0.000000	1727.898926	25869.021484
0.000000	1729.217651	25763.773438
0.000000	1730.536377	26052.974609
0.000000	1731.855103	25966.105469
0.000000	1733.173828	26000.820313
0.000000	1734.492554	26222.869141
0.000000	1735.811279	25985.035156
0.000000	1737.130005	25903.064453
0.000000	1738.448730	26047.871094
0.000000	1739.767456	26139.964844
0.000000	1741.086182	25890.699219
0.000000	1742.404907	26209.289063
0.000000	1743.723633	26050.994141
0.000000	1745.042358	26024.400391
0.000000	1746.361084	26432.660156
0.000000	1747.679810	26128.099609
0.000000	1748.998535	26428.181641
0.000000	1750.317261	26374.769531
0.000000	1751.635986	26443.437500
0.000000	1752.954712	26477.197266
0.000000	1754.273438	26416.908203
0.000000	1755.592163	26415.492188
0.000000	1756.910889	26480.773438
0.000000	1758.229614	26451.664063
0.000000	1759.548340	26373.992188
0.000000	1760.867065	26440.285156
0.000000	1762.185791	26594.857422
0.000000	1763.504517	26508.302734
0.000000	1764.823242	26466.390625
0.000000	1766.141968	26301.386719
0.000000	1767.460693	26504.710938
0.000000	1768.779419	26701.125000
0.000000	1770.098145	26572.173828
0.000000	1771.416870	26455.164063
0.000000	1772.735596	26654.289063
0.000000	1774.054321	26768.871094
0.000000	1775.373047	26674.632813
0.000000	1776.691772	26540.679688
0.000000	1778.010498	26448.570313
0.000000	1779.329224	26478.515625
0.000000	1780.647949	26655.306641
0.000000	1781.966675	26674.230469
0.000000	1783.285400	26580.630859
0.000000	1784.604126	26355.792969
0.000000	1785.922852	26466.107422
0.000000	1787.241577	26681.998047
0.000000	1788.560303	26601.792969
0.000000	1789.879028	26544.935547
0.000000	1791.197754	26607.765625
0.000000	1792.516479	26706.951172
0.000000	1793.835205	26644.925781
0.000000	1795.153931	26551.746094
0.000000	1796.472656	26568.531250
0.000000	1797.791382	26566.699219
0.000000	1799.110107	26458.398438
0.000000	1800.428833	26462.253906
0.000000	1801.747559	26613.957031
0.000000	1803.066284	26507.128906
0.000000	1804.385010	26366.261719
0.000000	1805.703735	26313.246094
0.000000	1807.022461	26518.302734
0.000000	1808.341187	26615.119141
0.000000	1809.659912	26523.011719
0.000000	1810.978638	26520.404297
0.000000	1812.297363	26433.937500
0.000000	1813.616089	26516.863281
0.000000	1814.934814	26414.347656
0.000000	1816.253540	26580.060547
0.000000	1817.572266	26413.056641
0.000000	1818.890991	26342.992188
0.000000	1820.209717	26432.298828
0.000000	1821.528442	26404.093750
0.000000	1822.847168	26468.628906
0.000000	1824.165894	26407.000000
0.000000	1825.484619	26623.132813
0.000000	1826.803345	26543.207031
0.000000	1828.122070	26509.919922
0.000000	1829.440796	26454.205078
0.000000	1830.759521	26594.410156
0.000000	1832.078247	26976.140625
0.000000	1833.396973	26629.332031
0.000000	1834.715698	26351.865234
0.000000	1836.034424	26603.666016
0.000000	1837.353149	26791.742188
0.000000	1838.671875	26450.005859
0.000000	1839.990601	26661.732422
0.000000	1841.309326	26614.972656
0.000000	1842.628052	26547.039063
0.000000	1843.946777	26743.052734
0.000000	1845.265503	26915.152344
0.000000	1846.584229	26982.753906
0.000000	1847.902954	26767.580078
0.000000	1849.221680	26742.912109
0.000000	1850.540405	26611.017578
0.000000	1851.859131	26754.240234
0.000000	1853.177856	26904.800781
0.000000	1854.496582	26562.630859
0.000000	1855.815308	26989.070313
0.000000	1857.134033	27038.191406
0.000000	1858.452759	26929.650391
0.000000	1859.771484	26956.917969
0.000000	1861.090210	27068.939453
0.000000	1862.408936	26988.009766
0.000000	1863.727661	27088.970703
0.000000	1865.046387	27020.378906
0.000000	1866.365112	27310.570313
0.000000	1867.683838	26897.425781
0.000000	1869.002563	27011.884766
0.000000	1870.321289	27439.132813
0.000000	1871.640015	27048.230469
0.000000	1872.958740	27101.707031
0.000000	1874.277466	27327.558594
0.000000	1875.596191	27517.761719
0.000000	1876.914917	27114.576172
0.000000	1878.233643	27217.652344
0.000000	1879.552368	27219.533203
0.000000	1880.871094	27493.140625
0.000000	1882.189819	27477.419922
0.000000	1883.508545	27477.029297
0.000000	1884.827271	27645.503906
0.000000	1886.145996	27375.357422
0.000000	1887.464722	27149.679688
0.000000	1888.783447	27181.347656
0.000000	1890.102173	27039.197266
0.000000	1891.420898	27478.900391
0.000000	1892.739624	27405.861328
0.000000	1894.058350	27534.578125
0.000000	1895.377075	27401.390625
0.000000	1896.695801	27225.595703
0.000000	1898.014526	27630.845703
0.000000	1899.333252	27143.763672
0.000000	1900.651978	27331.552734
0.000000	1901.970703	27031.503906
0.000000	1903.289429	27256.103516
0.000000	1904.608154	27430.123047
0.000000	1905.926880	27500.343750
0.000000	1907.245605	27378.972656
0.000000	1908.564331	27337.253906
0.000000	1909.883057	27503.691406
0.000000	1911.201782	27316.894531
0.000000	1912.520508	27357.605469
0.000000	1913.839233	27430.140625
0.000000	1915.157959	27087.685547
0.000000	1916.476685	27165.591797
0.000000	1917.795410	27188.156250
0.000000	1919.114136	27450.736328
0.000000	1920.432861	27104.835938
0.000000	1921.751587	27385.617188
0.000000	1923.070313	27228.888672
0.000000	1924.389038	27258.404297
0.000000	1925.707764	27023.123047
0.000000	1927.026489	27009.201172
0.000000	1928.345215	27200.904297
0.000000	1929.663940	27094.570313
0.000000	1930.982666	26876.843750
0.000000	1932.301392	26933.070313
0.000000	1933.620117	27154.230469
0.000000	1934.938843	27192.982422
0.000000	1936.257568	27071.544922
0.000000	1937.576294	27196.871094
0.000000	1938.895020	27166.632813
0.000000	1940.213745	27563.689453
0.000000	1941.532471	26974.533203
0.000000	1942.851196	27332.523438
0.000000	1944.169922	27342.437500
0.000000	1945.488647	27467.003906
0.000000	1946.807373	27547.062500
0.000000	1948.126099	27364.310547
0.000000	1949.444824	27348.666016
0.000000	1950.763550	27218.611328
0.000000	1952.082275	27249.898438
0.000000	1953.401001	27462.255859
0.000000	1954.719727	27355.699219
0.000000	1956.038452	27451.783203
0.000000	1957.357178	27571.361328
0.000000	1958.675903	27327.785156
0.000000	1959.994629	27364.177734
0.000000	1961.313354	27323.027344
0.000000	1962.632080	27493.330078
0.000000	1963.950806	27362.746094
0.000000	1965.269531	27584.318359
0.000000	1966.588257	27664.238281
0.000000	1967.906982	27501.316406
0.000000	1969.225708	27606.333984
0.000000	1970.544434	27569.470703
0.000000	1971.863159	27515.869141
0.000000	1973.181885	27866.457031
0.000000	1974.500610	27834.535156
0.000000	1975.819336	27835.597656
0.000000	1977.138062	27741.177734
0.000000	1978.456787	27667.683594
0.000000	1979.775513	27782.435547
0.000000	1981.094238	27831.056641
0.000000	1982.412964	27930.513672
0.000000	1983.731689	27957.449219
0.000000	1985.050415	27922.187500
0.000000	1986.369141	27772.390625
0.000000	1987.687866	27811.054688
0.000000	1989.006592	27843.052734
0.000000	1990.325317	27765.359375
0.000000	1991.644043	27791.947266
0.000000	1992.962769	27915.615234
0.000000	1994.281494	27832.669922
0.000000	1995.600220	27876.576172
0.000000	1996.918945	28112.841797
0.000000	1998.237671	28153.494141
0.000000	1999.556396	28097.578125
0.000000	2000.875122	28197.923828
0.000000	2002.193848	28393.562500
0.000000	2003.512573	28160.275391
0.000000	2004.831299	27968.486328
0.000000	2006.150024	28141.527344
0.000000	2007.468750	28172.292969
0.000000	2008.787476	28111.830078
0.000000	2010.106201	28100.904297
0.000000	2011.424927	28194.769531
0.000000	2012.743652	28151.919922
0.000000	2014.062378	28201.798828
0.000000	2015.381104	28341.886719
0.000000	2016.699829	28463.865234
0.000000	2018.018555	28222.703125
0.000000	2019.337280	28184.421875
0.000000	2020.656006	28348.658203
0.000000	2021.974731	28354.044922
0.000000	2023.293457	28224.974609
0.000000	2024.612183	28191.734375
0.000000	2025.930908	28315.322266
0.000000	2027.249634	28468.244141
0.000000	2028.568359	28310.412109
0.000000	2029.887085	28363.494141
0.000000	2031.205811	28124.402344
0.000000	2032.524536	28253.833984
0.000000	2033.843262	28433.708984
0.000000	2035.161987	28655.169922
0.000000	2036.480713	28288.626953
0.000000	2037.799438	28249.126953
0.000000	2039.118164	28060.300781
0.000000	2040.436890	28067.105469
0.000000	2041.755615	28374.451172
0.000000	2043.074341	28292.607422
0.000000	2044.393066	28660.478516
0.000000	2045.711792	28178.933594
0.000000	2047.030518	28407.808594
0.000000	2048.349121	28411.718750
0.000000	2049.667725	28410.468750
0.000000	2050.986328	28645.179688
0.000000	2052.304932	28279.341797
0.000000	2053.623535	28366.939453
0.000000	2054.942139	28449.195313
0.000000	2056.260742	28363.763672
0.000000	2057.579346	28311.671875
0.000000	2058.897949	28393.417969
0.000000	2060.216553	28323.689453
0.000000	2061.535156	28138.398438
0.000000	2062.853760	28433.394531
0.000000	2064.172363	28495.437500
0.000000	2065.490967	28478.328125
0.000000	2066.809570	28470.562500
0.000000	2068.128174	28574.503906
0.000000	2069.446777	28640.431641
0.000000	2070.765381	28555.201172
0.000000	2072.083984	28654.304688
0.000000	2073.402588	28556.511719
0.000000	2074.721191	28299.283203
0.000000	2076.039795	28435.304688
0.000000	2077.358398	28779.207031
0.000000	2078.677002	28731.580078
0.000000	2079.995605	28662.568359
0.000000	2081.314209	28734.642578
0.000000	2082.632813	28571.205078
0.000000	2083.951416	28360.859375
0.000000	2085.270020	28442.195313
0.000000	2086.588623	28668.289063
0.000000	2087.907227	28640.167969
0.000000	2089.225830	28886.187500
0.000000	2090.544434	28951.333984
0.000000	2091.863037	28763.755859
0.000000	2093.181641	28677.484375
0.000000	2094.500244	28764.937500
0.000000	2095.818848	29105.535156
0.000000	2097.137451	28864.193359
0.000000	2098.456055	28814.947266
0.000000	2099.774658	28708.652344
0.000000	2101.093262	28842.281250
0.000000	2102.411865	28645.765625
0.000000	2103.730469	28979.367188
0.000000	2105.049072	28933.341797
0.000000	2106.367676	28968.890625
0.000000	2107.686279	29037.742188
0.000000	2109.004883	28965.162109
0.000000	2110.323486	29001.742188
0.000000	2111.642090	29140.617188
0.000000	2112.960693	29013.046875
0.000000	2114.279297	29085.806641
0.000000	2115.597900	29040.750000
0.000000	2116.916504	29093.558594
0.000000	2118.235107	29014.152344
0.000000	2119.553711	29139.212891
0.000000	2120.872314	29345.792969
0.000000	2122.190918	29285.656250
0.000000	2123.509521	29210.269531
0.000000	2124.828125	29174.191406
0.000000	2126.146729	29077.796875
0.000000	2127.465332	29231.318359
0.000000	2128.783936	29350.705078
0.000000	2130.102539	29319.841797
0.000000	2131.421143	29260.626953
0.000000	2132.739746	29198.121094
0.000000	2134.058350	29259.781250
0.000000	2135.376953	29268.509766
0.000000	2136.695557	29370.066406
0.000000	2138.014160	29240.214844
0.000000	2139.332764	29521.304688
0.000000	2140.651367	29783.802734
0.000000	2141.969971	29721.589844
0.000000	2143.288574	29451.824219
0.000000	2144.607178	29390.210938
0.000000	2145.925781	29435.585938
0.000000	2147.244385	29535.796875
0.000000	2148.562988	29431.435547
0.000000	2149.881592	29219.601563
0.000000	2151.200195	29300.634766
0.000000	2152.518799	29433.396484
0.000000	2153.837402	29678.867188
0.000000	2155.156006	29564.173828
0.000000	2156.474609	29544.875000
0.000000	2157.793213	29621.496094
0.000000	2159.111816	29557.396484
0.000000	2160.430420	29572.337891
0.000000	2161.749023	29542.208984
0.000000	2163.067627	29588.308594
0.000000	2164.386230	29470.740234
0.000000	2165.704834	29481.562500
0.000000	2167.023438	29480.074219
0.000000	2168.342041	29572.562500
0.000000	2169.660645	29604.638672
0.000000	2170.979248	29555.548828
0.000000	2172.297852	29596.875000
0.000000	2173.616455	29653.285156
0.000000	2174.935059	29695.390625
0.000000	2176.253662	29874.947266
0.000000	2177.572266	29940.091797
0.000000	2178.890869	29624.253906
0.000000	2180.209473	29701.500000
0.000000	2181.528076	29699.134766
0.000000	2182.846680	29562.578125
0.000000	2184.165283	29585.363281
0.000000	2185.483887	29748.613281
0.000000	2186.802490	29972.566406
0.000000	2188.121094	29842.626953
0.000000	2189.439697	29803.669922
0.000000	2190.758301	29706.369141
0.000000	2192.076904	29804.794922
0.000000	2193.395508	30002.626953
0.000000	2194.714111	29888.562500
0.000000	2196.032715	29768.154297
0.000000	2197.351318	29832.214844
0.000000	2198.669922	29891.355469
0.000000	2199.988525	29828.406250
0.000000	2201.307129	29891.220703
0.000000	2202.625732	29775.923828
0.000000	2203.944336	29969.570313
0.000000	2205.262939	29896.001953
0.000000	2206.581543	29914.166016
0.000000	2207.900146	30142.908203
0.000000	2209.218750	30169.267578
0.000000	2210.537354	30180.830078
0.000000	2211.855957	30037.718750
0.000000	2213.174561	29986.486328
0.000000	2214.493164	29995.964844
0.000000	2215.811768	30019.705078
0.000000	2217.130371	30150.806641
0.000000	2218.448975	30239.820313
0.000000	2219.767578	30263.931641
0.000000	2221.086182	30380.351563
0.000000	2222.404785	30330.970703
0.000000	2223.723389	30317.976563
0.000000	2225.041992	30316.058594
0.000000	2226.360596	30285.759766
0.000000	2227.679199	30405.841797
0.000000	2228.997803	30302.707031
0.000000	2230.316406	30254.279297
0.000000	2231.635010	30300.070313
0.000000	2232.953613	30515.322266
0.000000	2234.272217	30506.310547
0.000000	2235.590820	30860.964844
0.000000	2236.909424	30650.685547
0.000000	2238.228027	30332.001953
0.000000	2239.546631	30452.410156
0.000000	2240.865234	30565.636719
0.000000	2242.183838	30304.515625
0.000000	2243.502441	30497.550781
0.000000	2244.821045	30535.912109
0.000000	2246.139648	31024.927734
0.000000	2247.458252	30729.441406
0.000000	2248.776855	30582.087891
0.000000	2250.095459	30641.697266
0.000000	2251.414063	30516.357422
0.000000	2252.732666	30598.962891
0.000000	2254.051270	30625.933594
0.000000	2255.369873	30318.041016
0.000000	2256.688477	30428.542969
0.000000	2258.007080	30560.998047
0.000000	2259.325684	30569.134766
0.000000	2260.644287	30513.144531
0.000000	2261.962891	30606.677734
0.000000	2263.281494	30513.468750
0.000000	2264.600098	30922.900391
0.000000	2265.918701	30619.632813
0.000000	2267.237305	30721.380859
0.000000	2268.555908	30458.160156
0.000000	2269.874512	30850.191406
0.000000	2271.193115	30785.316406
0.000000	2272.511719	30624.140625
0.000000	2273.830322	30565.261719
0.000000	2275.148926	30537.814453
0.000000	2276.467529	30498.169922
0.000000	2277.786133	30543.203125
0.000000	2279.104736	30780.507813
0.000000	2280.423340	30743.253906
0.000000	2281.741943	30659.841797
0.000000	2283.060547	30597.339844
0.000000	2284.379150	30646.396484
0.000000	2285.697754	30685.964844
0.000000	2287.016357	30608.027344
0.000000	2288.334961	30737.662109
0.000000	2289.653564	30603.750000
0.000000	2290.972168	30748.634766
0.000000	2292.290771	30731.574219
0.000000	2293.609375	30533.576172
0.000000	2294.927979	30800.863281
0.000000	2296.246582	30796.085938
0.000000	2297.565186	30653.894531
0.000000	2298.883789	31024.818359
0.000000	2300.202393	30634.132813
0.000000	2301.520996	30651.435547
0.000000	2302.839600	30583.025391
0.000000	2304.158203	30898.033203
0.000000	2305.476807	30806.238281
0.000000	2306.795410	30669.365234
0.000000	2308.114014	30841.328125
0.000000	2309.432617	30796.400391
0.000000	2310.751221	30580.458984
0.000000	2312.069824	30853.457031
0.000000	2313.388428	31045.273438
0.000000	2314.707031	30502.835938
0.000000	2316.025635	31094.421875
0.000000	2317.344238	30596.304688
0.000000	2318.662842	30689.417969
0.000000	2319.981445	30923.597656
0.000000	2321.300049	30921.126953
0.000000	2322.618652	30875.482422
0.000000	2323.937256	31072.787109
0.000000	2325.255859	31075.341797
0.000000	2326.574463	31032.972656
0.000000	2327.893066	31094.562500
0.000000	2329.211670	30883.033203
0.000000	2330.530273	30768.554688
0.000000	2331.848877	30940.492188
0.000000	2333.167480	30979.832031
0.000000	2334.486084	30884.503906
0.000000	2335.804688	31255.712891
0.000000	2337.123291	31200.689453
0.000000	2338.441895	31290.458984
0.000000	2339.760498	31460.201172
0.000000	2341.079102	31153.978516
0.000000	2342.397705	31633.812500
0.000000	2343.716309	31227.037109
0.000000	2345.034912	31399.873047
0.000000	2346.353516	31312.406250
0.000000	2347.672119	31244.494141
0.000000	2348.990723	31243.839844
0.000000	2350.309326	31342.203125
0.000000	2351.627930	31207.623047
0.000000	2352.946533	31362.695313
0.000000	2354.265137	31546.509766
0.000000	2355.583740	31448.009766
0.000000	2356.902344	31587.021484
0.000000	2358.220947	31370.539063
0.000000	2359.539551	31638.091797
0.000000	2360.858154	31636.689453
0.000000	2362.176758	31481.416016
0.000000	2363.495361	31500.755859
0.000000	2364.813965	31720.994141
0.000000	2366.132568	31637.369141
0.000000	2367.451172	31741.828125
0.000000	2368.769775	31717.849609
0.000000	2370.088379	31657.539063
0.000000	2371.406982	31577.810547
0.000000	2372.725586	31616.376953
0.000000	2374.044189	31699.035156
0.000000	2375.362793	32001.960938
0.000000	2376.681396	32121.074219
0.000000	2378.000000	31607.441406
0.000000	2379.318604	31830.611328
0.000000	2380.637207	31844.974609
0.000000	2381.955811	31929.322266
0.000000	2383.274414	31865.000000
0.000000	2384.593018	31957.148438
0.000000	2385.911621	32010.210938
0.000000	2387.230225	31876.560547
0.000000	2388.548828	31724.861328
0.000000	2389.867432	31653.291016
0.000000	2391.186035	31539.691406
0.000000	2392.504639	31647.343750
0.000000	2393.823242	31655.291016
0.000000	2395.141846	31670.734375
0.000000	2396.460449	31645.275391
0.000000	2397.779053	31761.189453
0.000000	2399.097656	31933.929688
0.000000	2400.416260	31734.066406
0.000000	2401.734863	31915.388672
0.000000	2403.053467	32208.212891
0.000000	2404.372070	31956.517578
0.000000	2405.690674	31655.142578
0.000000	2407.009277	31598.263672
0.000000	2408.327881	31701.906250
0.000000	2409.646484	31666.927734
0.000000	2410.965088	31725.847656
0.000000	2412.283691	31871.617188
0.000000	2413.602295	31918.871094
0.000000	2414.920898	31701.964844
0.000000	2416.239502	31992.335938
0.000000	2417.558105	31848.484375
0.000000	2418.876709	31793.625000
0.000000	2420.195313	32013.029297
0.000000	2421.513916	31854.830078
0.000000	2422.832520	32094.476563
0.000000	2424.151123	31956.345703
0.000000	2425.469727	31939.412109
0.000000	2426.788330	32056.320313
0.000000	2428.106934	32088.091797
0.000000	2429.425537	32100.279297
0.000000	2430.744141	32163.326172
0.000000	2432.062744	31943.117188
0.000000	2433.381348	31849.259766
0.000000	2434.699951	31921.097656
0.000000	2436.018555	32113.046875
0.000000	2437.337158	32110.330078
0.000000	2438.655762	32268.769531
0.000000	2439.974365	32259.208984
0.000000	2441.292969	32152.802734
0.000000	2442.611572	32221.517578
0.000000	2443.930176	32215.550781
0.000000	2445.248779	32160.486328
0.000000	2446.567383	32271.361328
0.000000	2447.885986	32119.798828
0.000000	2449.204590	32601.500000
0.000000	2450.523193	32375.136719
0.000000	2451.841797	32115.619141
0.000000	2453.160400	32590.263672
0.000000	2454.479004	32181.212891
0.000000	2455.797607	32560.332031
0.000000	2457.116211	32662.480469
0.000000	2458.434814	32412.392578
0.000000	2459.753418	32369.990234
0.000000	2461.072021	32444.308594
0.000000	2462.390625	32354.097656
0.000000	2463.709229	32504.703125
0.000000	2465.027832	32818.175781
0.000000	2466.346436	32661.234375
0.000000	2467.665039	32670.248047
0.000000	2468.983643	32911.953125
0.000000	2470.302246	32937.750000
0.000000	2471.620850	32943.011719
0.000000	2472.939453	32808.773438
0.000000	2474.258057	32938.890625
0.000000	2475.576660	32767.019531
0.000000	2476.895264	32831.562500
0.000000	2478.213867	33080.917969
0.000000	2479.532471	32966.710938
0.000000	2480.851074	32947.597656
0.000000	2482.169678	32944.699219
0.000000	2483.488281	33044.437500
0.000000	2484.806885	33087.343750
0.000000	2486.125488	32951.593750
0.000000	2487.444092	33145.761719
0.000000	2488.762695	32923.921875
0.000000	2490.081299	33344.437500
0.000000	2491.399902	33041.542969
0.000000	2492.718506	33063.933594
0.000000	2494.037109	33116.730469
0.000000	2495.355713	33098.441406
0.000000	2496.674316	32930.023438
0.000000	2497.992920	33182.808594
0.000000	2499.311523	33189.652344
0.000000	2500.630127	33363.398438
0.000000	2501.948730	33083.484375
0.000000	2503.267334	33273.960938
0.000000	2504.585938	33253.562500
0.000000	2505.904541	33327.183594
0.000000	2507.223145	33377.519531
0.000000	2508.541748	33412.003906
0.000000	2509.860352	33367.757813
0.000000	2511.178955	33206.328125
0.000000	2512.497559	33617.687500
0.000000	2513.816162	33382.007813
0.000000	2515.134766	33692.667969
0.000000	2516.453369	33517.421875
0.000000	2517.771973	33337.828125
0.000000	2519.090576	33455.757813
0.000000	2520.409180	33612.894531
0.000000	2521.727783	33623.585938
0.000000	2523.046387	33558.046875
0.000000	2524.364990	33589.855469
0.000000	2525.683594	33506.621094
0.000000	2527.002197	33541.589844
0.000000	2528.320801	33418.500000
0.000000	2529.639404	33414.578125
0.000000	2530.958008	33773.210938
0.000000	2532.276611	33526.074219
0.000000	2533.595215	34104.710938
0.000000	2534.913818	33721.027344
0.000000	2536.232422	33648.515625
0.000000	2537.551025	33905.351563
0.000000	2538.869629	33881.324219
0.000000	2540.188232	33717.292969
0.000000	2541.506836	33686.066406
0.000000	2542.825439	33704.660156
0.000000	2544.144043	33918.695313
0.000000	2545.462646	33871.937500
0.000000	2546.781250	33802.234375
0.000000	2548.099854	33874.925781
0.000000	2549.418457	33904.718750
0.000000	2550.737061	33836.148438
0.000000	2552.055664	33940.425781
0.000000	2553.374268	33939.964844
0.000000	2554.692871	33968.472656
0.000000	2556.011475	33982.640625
0.000000	2557.330078	34264.722656
0.000000	2558.648682	33954.113281
0.000000	2559.967285	34062.410156
0.000000	2561.285889	34243.910156
0.000000	2562.604492	34213.882813
0.000000	2563.923096	34268.156250
0.000000	2565.241699	34083.214844
0.000000	2566.560303	33967.398438
0.000000	2567.878906	34100.429688
0.000000	2569.197510	34286.265625
0.000000	2570.516113	34120.691406
0.000000	2571.834717	34243.417969
0.000000	2573.153320	34427.335938
0.000000	2574.471924	34307.480469
0.000000	2575.790527	34316.359375
0.000000	2577.109131	34406.425781
0.000000	2578.427734	34534.160156
0.000000	2579.746338	34509.667969
0.000000	2581.064941	34446.843750
0.000000	2582.383545	34377.679688
0.000000	2583.702148	34623.589844
0.000000	2585.020752	34541.070313
0.000000	2586.339355	34449.066406
0.000000	2587.657959	34703.218750
0.000000	2588.976563	34835.746094
0.000000	2590.295166	34632.164063
0.000000	2591.613770	34791.863281
0.000000	2592.932373	34809.402344
0.000000	2594.250977	34808.277344
0.000000	2595.569580	34764.250000
0.000000	2596.888184	34862.839844
0.000000	2598.206787	34842.269531
0.000000	2599.525391	34823.718750
0.000000	2600.843994	34997.183594
0.000000	2602.162598	34868.113281
0.000000	2603.481201	35137.414063
0.000000	2604.799805	34937.632813
0.000000	2606.118408	35182.335938
0.000000	2607.437012	35291.937500
0.000000	2608.755615	35267.320313
0.000000	2610.074219	35400.937500
0.000000	2611.392822	35028.601563
0.000000	2612.711426	35213.863281
0.000000	2614.030029	35143.785156
0.000000	2615.348633	35553.925781
0.000000	2616.667236	35245.246094
0.000000	2617.985840	35484.550781
0.000000	2619.304443	35520.875000
0.000000	2620.623047	35415.769531
0.000000	2621.941650	35321.394531
0.000000	2623.260254	35437.976563
0.000000	2624.578857	35433.394531
0.000000	2625.897461	35683.101563
0.000000	2627.216064	35684.992188
0.000000	2628.534668	35464.324219
0.000000	2629.853271	35588.812500
0.000000	2631.171875	35461.980469
0.000000	2632.490479	35850.625000
0.000000	2633.809082	35925.402344
0.000000	2635.127686	35764.339844
0.000000	2636.446289	35610.832031
0.000000	2637.764893	35972.207031
0.000000	2639.083496	35792.492188
0.000000	2640.402100	35936.125000
0.000000	2641.720703	35630.023438
0.000000	2643.039307	35716.449219
0.000000	2644.357910	35795.417969
0.000000	2645.676514	35791.386719
0.000000	2646.995117	35714.054688
0.000000	2648.313721	35817.117188
0.000000	2649.632324	36058.000000
0.000000	2650.950928	35562.652344
0.000000	2652.269531	35573.179688
0.000000	2653.588135	36084.214844
0.000000	2654.906738	35750.277344
0.000000	2656.225342	35649.957031
0.000000	2657.543945	35911.835938
0.000000	2658.862549	36076.648438
0.000000	2660.181152	35958.527344
0.000000	2661.499756	36174.554688
0.000000	2662.818359	35910.187500
0.000000	2664.136963	35980.726563
0.000000	2665.455566	35964.066406
0.000000	2666.774170	35903.453125
0.000000	2668.092773	36049.144531
0.000000	2669.411377	35929.855469
0.000000	2670.729980	35727.496094
0.000000	2672.048584	35741.042969
0.000000	2673.367188	35927.476563
0.000000	2674.685791	36026.300781
0.000000	2676.004395	35854.769531
0.000000	2677.322998	35793.582031
0.000000	2678.641602	35957.695313
0.000000	2679.960205	36012.019531
0.000000	2681.278809	35984.460938
0.000000	2682.597412	36102.824219
0.000000	2683.916016	36046.121094
0.000000	2685.234619	35756.285156
0.000000	2686.553223	36195.183594
0.000000	2687.871826	36119.078125
0.000000	2689.190430	36021.488281
0.000000	2690.509033	35835.980469
0.000000	2691.827637	35921.542969
0.000000	2693.146240	35967.226563
0.000000	2694.464844	36160.503906
0.000000	2695.783447	35908.562500
0.000000	2697.102051	36107.113281
0.000000	2698.420654	36017.898438
0.000000	2699.739258	36410.187500
0.000000	2701.057861	36022.339844
0.000000	2702.376465	36082.824219
0.000000	2703.695068	36059.597656
0.000000	2705.013672	35981.667969
0.000000	2706.332275	35857.003906
0.000000	2707.650879	36014.925781
0.000000	2708.969482	36015.250000
0.000000	2710.288086	35862.128906
0.000000	2711.606689	35922.519531
0.000000	2712.925293	36152.042969
0.000000	2714.243896	36118.683594
0.000000	2715.562500	36163.691406
0.000000	2716.881104	36168.835938
0.000000	2718.199707	36013.703125
0.000000	2719.518311	35845.691406
0.000000	2720.836914	35917.687500
0.000000	2722.155518	36111.785156
0.000000	2723.474121	36076.773438
0.000000	2724.792725	35808.332031
0.000000	2726.111328	35966.296875
0.000000	2727.429932	36356.652344
0.000000	2728.748535	36327.488281
0.000000	2730.067139	36356.191406
0.000000	2731.385742	36098.062500
0.000000	2732.704346	36230.875000
0.000000	2734.022949	36241.488281
0.000000	2735.341553	36139.164063
0.000000	2736.660156	36245.953125
0.000000	2737.978760	36110.652344
0.000000	2739.297363	35756.878906
0.000000	2740.615967	35838.156250
0.000000	2741.934570	36119.699219
0.000000	2743.253174	36072.691406
0.000000	2744.571777	35790.523438
0.000000	2745.890381	35975.925781
0.000000	2747.208984	35867.203125
0.000000	2748.527588	35899.289063
0.000000	2749.846191	35866.187500
0.000000	2751.164795	36255.406250
0.000000	2752.483398	36167.988281
0.000000	2753.802002	36013.667969
0.000000	2755.120605	36140.125000
0.000000	2756.439209	35946.140625
0.000000	2757.757813	35940.250000
0.000000	2759.076416	35876.480469
0.000000	2760.395020	35691.398438
0.000000	2761.713623	35761.714844
0.000000	2763.032227	35700.386719
0.000000	2764.350830	35672.335938
0.000000	2765.669434	35622.605469
0.000000	2766.988037	35968.902344
0.000000	2768.306641	35957.316406
0.000000	2769.625244	35730.972656
0.000000	2770.943848	35921.761719
0.000000	2772.262451	35908.906250
0.000000	2773.581055	35762.222656
0.000000	2774.899658	35636.132813
0.000000	2776.218262	35585.257813
0.000000	2777.536865	35664.902344
0.000000	2778.855469	35812.640625
0.000000	2780.174072	35681.910156
0.000000	2781.492676	35642.867188
0.000000	2782.811279	35610.390625
0.000000	2784.129883	35569.878906
0.000000	2785.448486	35543.910156
0.000000	2786.767090	35862.812500
0.000000	2788.085693	35946.476563
0.000000	2789.404297	35833.640625
0.000000	2790.722900	35896.941406
0.000000	2792.041504	35931.964844
0.000000	2793.360107	35723.257813
0.000000	2794.678711	35934.507813
0.000000	2795.997314	35742.523438
0.000000	2797.315918	35694.464844
0.000000	2798.634521	35791.976563
0.000000	2799.953125	35566.957031
0.000000	2801.271729	35687.781250
0.000000	2802.590332	35809.843750
0.000000	2803.908936	35938.679688
0.000000	2805.227539	35606.867188
0.000000	2806.546143	35973.753906
0.000000	2807.864746	35655.449219
0.000000	2809.183350	35708.597656
0.000000	2810.501953	35905.957031
0.000000	2811.820557	36024.312500
0.000000	2813.139160	35737.093750
0.000000	2814.457764	35684.160156
0.000000	2815.776367	35803.050781
0.000000	2817.094971	35527.605469
0.000000	2818.413574	36010.363281
0.000000	2819.732178	36097.796875
0.000000	2821.050781	35949.640625
0.000000	2822.369385	35931.398438
0.000000	2823.687988	35890.300781
0.000000	2825.006592	35901.316406
0.000000	2826.325195	35610.656250
0.000000	2827.643799	36041.394531
0.000000	2828.962402	36038.425781
0.000000	2830.281006	35699.609375
0.000000	2831.599609	35532.507813
0.000000	2832.918213	35547.367188
0.000000	2834.236816	35968.960938
0.000000	2835.555420	35800.589844
0.000000	2836.874023	35922.914063
0.000000	2838.192627	35975.812500
0.000000	2839.511230	35916.734375
0.000000	2840.829834	35805.597656
0.000000	2842.148438	35896.562500
0.000000	2843.467041	35448.156250
0.000000	2844.785645	35691.285156
0.000000	2846.104248	35559.109375
0.000000	2847.422852	35600.128906
0.000000	2848.741455	35820.742188
0.000000	2850.060059	35940.812500
0.000000	2851.378662	35868.160156
0.000000	2852.697266	35783.492188
0.000000	2854.015869	35465.320313
0.000000	2855.334473	35683.261719
0.000000	2856.653076	35705.792969
0.000000	2857.971680	35843.023438
0.000000	2859.290283	35729.664063
0.000000	2860.608887	35687.746094
0.000000	2861.927490	35819.519531
0.000000	2863.246094	36115.585938
0.000000	2864.564697	35580.066406
0.000000	2865.883301	35487.406250
0.000000	2867.201904	35703.554688
0.000000	2868.520508	35656.968750
0.000000	2869.839111	35775.621094
0.000000	2871.157715	35602.488281
0.000000	2872.476318	35474.257813
0.000000	2873.794922	35398.757813
0.000000	2875.113525	35560.394531
0.000000	2876.432129	35424.363281
0.000000	2877.750732	35346.121094
0.000000	2879.069336	35240.398438
0.000000	2880.387939	35017.445313
0.000000	2881.706543	35289.226563
0.000000	2883.025146	35528.777344
0.000000	2884.343750	35392.691406
0.000000	2885.662354	35572.140625
0.000000	2886.980957	35448.425781
0.000000	2888.299561	35682.871094
0.000000	2889.618164	35616.621094
0.000000	2890.936768	35499.113281
0.000000	2892.255371	35435.527344
0.000000	2893.573975	35306.945313
0.000000	2894.892578	35517.203125
0.000000	2896.211182	35492.113281
0.000000	2897.529785	35459.730469
0.000000	2898.848389	35143.984375
0.000000	2900.166992	35527.402344
0.000000	2901.485596	35376.140625
0.000000	2902.804199	35284.343750
0.000000	2904.122803	35295.953125
0.000000	2905.441406	35189.320313
0.000000	2906.760010	35286.148438
0.000000	2908.078613	34919.617188
0.000000	2909.397217	35121.226563
0.000000	2910.715820	35169.152344
0.000000	2912.034424	35021.156250
0.000000	2913.353027	35072.183594
0.000000	2914.671631	35055.929688
0.000000	2915.990234	34944.769531
0.000000	2917.308838	34938.605469
0.000000	2918.627441	35185.613281
0.000000	2919.946045	34875.968750
0.000000	2921.264648	34946.324219
0.000000	2922.583252	35041.566406
0.000000	2923.901855	34981.347656
0.000000	2925.220459	34623.070313
0.000000	2926.539063	34675.351563
0.000000	2927.857666	34972.664063
0.000000	2929.176270	34839.218750
0.000000	2930.494873	34783.917969
0.000000	2931.813477	34613.804688
0.000000	2933.132080	34709.324219
0.000000	2934.450684	34733.800781
0.000000	2935.769287	34730.406250
0.000000	2937.087891	34857.992188
0.000000	2938.406494	34694.039063
0.000000	2939.725098	34786.867188
0.000000	2941.043701	34801.265625
0.000000	2942.362305	34711.750000
0.000000	2943.680908	34604.132813
0.000000	2944.999512	34764.300781
0.000000	2946.318115	34857.222656
0.000000	2947.636719	34997.058594
0.000000	2948.955322	35019.687500
0.000000	2950.273926	34957.058594
0.000000	2951.592529	34589.468750
0.000000	2952.911133	34790.890625
0.000000	2954.229736	34688.765625
0.000000	2955.548340	34642.234375
0.000000	2956.866943	34670.960938
0.000000	2958.185547	34366.187500
0.000000	2959.504150	34703.121094
0.000000	2960.822754	34243.109375
0.000000	2962.141357	34479.972656
0.000000	2963.459961	34593.054688
0.000000	2964.778564	34391.128906
0.000000	2966.097168	34283.269531
0.000000	2967.415771	34309.769531
0.000000	2968.734375	34364.191406
0.000000	2970.052979	34034.558594
0.000000	2971.371582	34137.441406
0.000000	2972.690186	34390.640625
0.000000	2974.008789	34379.085938
0.000000	2975.327393	34204.882813
0.000000	2976.645996	34248.589844
0.000000	2977.964600	34182.554688
0.000000	2979.283203	34144.949219
0.000000	2980.601807	34240.476563
0.000000	2981.920410	34204.843750
0.000000	2983.239014	34440.402344
0.000000	2984.557617	34284.566406
0.000000	2985.876221	34110.078125
0.000000	2987.194824	34302.449219
0.000000	2988.513428	34395.335938
0.000000	2989.832031	34445.312500
0.000000	2991.150635	34438.527344
0.000000	2992.469238	34170.253906
0.000000	2993.787842	34125.117188
0.000000	2995.106445	33991.566406
0.000000	2996.425049	34161.617188
0.000000	2997.743652	34280.066406
0.000000	2999.062256	34223.589844
0.000000	3000.380859	34190.437500
