#DatasetIndex		#Wave		#Intensity
0.000000	699.292969	26205.111328
0.000000	700.611694	26383.234375
0.000000	701.930420	26399.275391
0.000000	703.249146	26300.523438
0.000000	704.567871	26288.099609
0.000000	705.886597	26381.962891
0.000000	707.205322	26460.828125
0.000000	708.524048	26584.322266
0.000000	709.842773	26554.804688
0.000000	711.161499	26769.974609
0.000000	712.480225	26722.734375
0.000000	713.798950	26832.484375
0.000000	715.117676	27077.634766
0.000000	716.436401	27138.802734
0.000000	717.755127	27125.605469
0.000000	719.073853	27145.419922
0.000000	720.392578	27273.439453
0.000000	721.711304	27314.591797
0.000000	723.030029	27271.548828
0.000000	724.348755	27290.154297
0.000000	725.667480	27487.873047
0.000000	726.986206	27777.019531
0.000000	728.304932	27740.474609
0.000000	729.623657	28047.685547
0.000000	730.942383	27899.789063
0.000000	732.261108	27913.750000
0.000000	733.579834	27990.990234
0.000000	734.898560	27973.246094
0.000000	736.217285	27970.640625
0.000000	737.536011	27762.705078
0.000000	738.854736	27808.134766
0.000000	740.173462	28045.597656
0.000000	741.492188	28159.097656
0.000000	742.810913	28124.896484
0.000000	744.129639	28106.652344
0.000000	745.448364	28201.771484
0.000000	746.767090	28213.724609
0.000000	748.085815	28388.349609
0.000000	749.404541	28213.291016
0.000000	750.723267	28430.460938
0.000000	752.041992	28638.113281
0.000000	753.360718	28526.947266
0.000000	754.679443	28337.576172
0.000000	755.998169	28604.470703
0.000000	757.316895	28583.447266
0.000000	758.635620	28561.005859
0.000000	759.954346	28736.333984
0.000000	761.273071	28856.623047
0.000000	762.591797	28848.490234
0.000000	763.910522	28836.064453
0.000000	765.229248	28933.996094
0.000000	766.547974	28961.375000
0.000000	767.866699	29099.927734
0.000000	769.185425	29227.191406
0.000000	770.504150	29259.916016
0.000000	771.822876	29261.144531
0.000000	773.141602	29181.343750
0.000000	774.460327	29149.851563
0.000000	775.779053	29458.738281
0.000000	777.097778	29457.724609
0.000000	778.416504	29494.544922
0.000000	779.735229	29542.767578
0.000000	781.053955	29629.060547
0.000000	782.372681	29755.095703
0.000000	783.691406	29833.955078
0.000000	785.010132	29838.539063
0.000000	786.328857	29975.611328
0.000000	787.647583	30102.111328
0.000000	788.966309	30070.093750
0.000000	790.285034	30196.365234
0.000000	791.603760	30425.894531
0.000000	792.922485	30417.580078
0.000000	794.241211	30307.330078
0.000000	795.559937	30565.566406
0.000000	796.878662	30593.160156
0.000000	798.197388	30497.556641
0.000000	799.516113	30653.324219
0.000000	800.834839	30760.515625
0.000000	802.153564	30902.439453
0.000000	803.472290	31039.650391
0.000000	804.791016	31089.431641
0.000000	806.109741	31131.732422
0.000000	807.428467	31407.605469
0.000000	808.747192	31607.945313
0.000000	810.065918	31545.255859
0.000000	811.384644	31508.861328
0.000000	812.703369	31560.828125
0.000000	814.022095	31638.636719
0.000000	815.340820	31727.080078
0.000000	816.659546	31915.421875
0.000000	817.978271	31930.628906
0.000000	819.296997	31686.013672
0.000000	820.615723	31685.208984
0.000000	821.934448	31960.189453
0.000000	823.253174	32123.496094
0.000000	824.571899	32095.216797
0.000000	825.890625	32166.175781
0.000000	827.209351	32453.261719
0.000000	828.528076	32182.183594
0.000000	829.846802	32564.158203
0.000000	831.165527	32379.656250
0.000000	832.484253	32345.164063
0.000000	833.802979	32411.015625
0.000000	835.121704	32439.525391
0.000000	836.440430	32487.841797
0.000000	837.759155	32476.027344
0.000000	839.077881	32752.423828
0.000000	840.396606	32605.474609
0.000000	841.715332	32731.685547
0.000000	843.034058	32822.246094
0.000000	844.352783	32754.027344
0.000000	845.671509	32820.335938
0.000000	846.990234	33226.375000
0.000000	848.308960	33376.656250
0.000000	849.627686	33142.109375
0.000000	850.946411	33006.812500
0.000000	852.265137	32981.058594
0.000000	853.583862	33169.226563
0.000000	854.902588	33225.269531
0.000000	856.221313	33218.390625
0.000000	857.540039	33441.214844
0.000000	858.858765	33536.355469
0.000000	860.177490	33655.441406
0.000000	861.496216	33625.226563
0.000000	862.814941	33695.425781
0.000000	864.133667	33778.648438
0.000000	865.452393	33744.312500
0.000000	866.771118	33804.437500
0.000000	868.089844	34026.996094
0.000000	869.408569	33881.589844
0.000000	870.727295	34164.714844
0.000000	872.046021	34304.378906
0.000000	873.364746	34460.722656
0.000000	874.683472	34400.753906
0.000000	876.002197	34440.988281
0.000000	877.320923	34589.257813
0.000000	878.639648	34675.277344
0.000000	879.958374	34792.003906
0.000000	881.277100	35002.972656
0.000000	882.595825	34992.480469
0.000000	883.914551	35095.359375
0.000000	885.233276	35031.875000
0.000000	886.552002	35137.613281
0.000000	887.870728	35357.402344
0.000000	889.189453	35459.312500
0.000000	890.508179	35399.324219
0.000000	891.826904	35235.128906
0.000000	893.145630	35650.738281
0.000000	894.464355	35759.316406
0.000000	895.783081	35811.121094
0.000000	897.101807	35728.410156
0.000000	898.420532	35832.953125
0.000000	899.739258	35906.957031
0.000000	901.057983	35713.738281
0.000000	902.376709	36126.640625
0.000000	903.695435	36057.328125
0.000000	905.014160	36289.355469
0.000000	906.332886	36064.480469
0.000000	907.651611	36098.886719
0.000000	908.970337	36294.886719
0.000000	910.289063	36382.187500
0.000000	911.607788	36316.148438
0.000000	912.926514	36329.621094
0.000000	914.245239	36718.984375
0.000000	915.563965	36676.156250
0.000000	916.882690	36743.906250
0.000000	918.201416	36697.511719
0.000000	919.520142	36813.832031
0.000000	920.838867	37002.144531
0.000000	922.157593	37099.554688
0.000000	923.476318	37097.242188
0.000000	924.795044	37040.546875
0.000000	926.113770	36979.875000
0.000000	927.432495	37032.324219
0.000000	928.751221	37152.574219
0.000000	930.069946	37318.683594
0.000000	931.388672	37366.843750
0.000000	932.707397	37315.687500
0.000000	934.026123	37347.179688
0.000000	935.344849	37492.476563
0.000000	936.663574	37354.464844
0.000000	937.982300	37552.078125
0.000000	939.301025	37514.664063
0.000000	940.619751	37674.773438
0.000000	941.938477	37725.828125
0.000000	943.257202	37782.406250
0.000000	944.575928	37832.835938
0.000000	945.894653	37772.820313
0.000000	947.213379	37762.101563
0.000000	948.532104	38099.562500
0.000000	949.850830	37798.531250
0.000000	951.169556	37947.984375
0.000000	952.488281	37988.937500
0.000000	953.807007	37895.667969
0.000000	955.125732	37913.847656
0.000000	956.444458	38138.417969
0.000000	957.763184	38456.542969
0.000000	959.081909	38665.007813
0.000000	960.400635	38231.105469
0.000000	961.719360	38504.605469
0.000000	963.038086	38578.683594
0.000000	964.356812	38636.320313
0.000000	965.675537	38814.105469
0.000000	966.994263	38960.652344
0.000000	968.312988	39002.648438
0.000000	969.631714	38945.941406
0.000000	970.950439	38750.519531
0.000000	972.269165	39077.957031
0.000000	973.587891	39115.777344
0.000000	974.906616	39380.160156
0.000000	976.225342	39433.386719
0.000000	977.544067	39492.500000
0.000000	978.862793	39454.703125
0.000000	980.181519	39553.421875
0.000000	981.500244	39777.312500
0.000000	982.818970	39327.218750
0.000000	984.137695	39627.773438
0.000000	985.456421	40134.921875
0.000000	986.775146	39949.203125
0.000000	988.093872	39859.925781
0.000000	989.412598	39774.105469
0.000000	990.731323	39987.476563
0.000000	992.050049	40271.250000
0.000000	993.368774	40226.105469
0.000000	994.687500	40227.750000
0.000000	996.006226	40629.785156
0.000000	997.324951	40309.171875
0.000000	998.643677	40676.218750
0.000000	999.962402	40603.496094
0.000000	1001.281128	40642.425781
0.000000	1002.599854	40718.101563
0.000000	1003.918579	40976.207031
0.000000	1005.237305	41207.289063
0.000000	1006.556030	40895.789063
0.000000	1007.874756	41262.796875
0.000000	1009.193481	41174.238281
0.000000	1010.512207	41130.542969
0.000000	1011.830933	41290.562500
0.000000	1013.149658	41234.683594
0.000000	1014.468384	41276.625000
0.000000	1015.787109	41383.554688
0.000000	1017.105835	41467.882813
0.000000	1018.424561	41577.707031
0.000000	1019.743286	41498.042969
0.000000	1021.062012	41410.269531
0.000000	1022.380737	41664.195313
0.000000	1023.699463	41664.628906
0.000000	1025.018188	41506.914063
0.000000	1026.336914	41702.273438
0.000000	1027.655640	42050.230469
0.000000	1028.974365	42041.453125
0.000000	1030.293091	41763.898438
0.000000	1031.611816	41836.410156
0.000000	1032.930542	41842.910156
0.000000	1034.249268	41925.750000
0.000000	1035.567993	42049.230469
0.000000	1036.886719	42113.671875
0.000000	1038.205444	42089.277344
0.000000	1039.524170	42050.882813
0.000000	1040.842896	42149.152344
0.000000	1042.161621	42215.300781
0.000000	1043.480347	42119.484375
0.000000	1044.799072	42270.589844
0.000000	1046.117798	42064.687500
0.000000	1047.436523	42326.597656
0.000000	1048.755249	42511.621094
0.000000	1050.073975	42587.855469
0.000000	1051.392700	42531.988281
0.000000	1052.711426	42474.667969
0.000000	1054.030151	42575.621094
0.000000	1055.348877	42715.082031
0.000000	1056.667603	42641.160156
0.000000	1057.986328	42585.355469
0.000000	1059.305054	42982.945313
0.000000	1060.623779	43051.222656
0.000000	1061.942505	43078.386719
0.000000	1063.261230	43266.246094
0.000000	1064.579956	43386.066406
0.000000	1065.898682	43347.195313
0.000000	1067.217407	43339.863281
0.000000	1068.536133	43393.675781
0.000000	1069.854858	43388.769531
0.000000	1071.173584	43704.746094
0.000000	1072.492310	43839.156250
0.000000	1073.811035	43751.050781
0.000000	1075.129761	43589.054688
0.000000	1076.448486	43669.414063
0.000000	1077.767212	43858.203125
0.000000	1079.085938	43979.367188
0.000000	1080.404663	44094.136719
0.000000	1081.723389	44325.824219
0.000000	1083.042114	44555.246094
0.000000	1084.360840	44535.972656
0.000000	1085.679565	44723.945313
0.000000	1086.998291	44534.003906
0.000000	1088.317017	44838.671875
0.000000	1089.635742	44757.593750
0.000000	1090.954468	45104.703125
0.000000	1092.273193	45291.101563
0.000000	1093.591919	45361.718750
0.000000	1094.910645	45395.734375
0.000000	1096.229370	45137.585938
0.000000	1097.548096	45308.765625
0.000000	1098.866821	45270.222656
0.000000	1100.185547	45283.800781
0.000000	1101.504272	45608.097656
0.000000	1102.822998	45850.152344
0.000000	1104.141724	46005.468750
0.000000	1105.460449	46131.558594
0.000000	1106.779175	46066.207031
0.000000	1108.097900	46047.175781
0.000000	1109.416626	46208.753906
0.000000	1110.735352	46030.480469
0.000000	1112.054077	46229.085938
0.000000	1113.372803	46086.093750
0.000000	1114.691528	46261.875000
0.000000	1116.010254	46466.679688
0.000000	1117.328979	46397.152344
0.000000	1118.647705	46357.257813
0.000000	1119.966431	46504.582031
0.000000	1121.285156	46525.675781
0.000000	1122.603882	46411.242188
0.000000	1123.922607	46557.406250
0.000000	1125.241333	46634.828125
0.000000	1126.560059	46579.539063
0.000000	1127.878784	46415.890625
0.000000	1129.197510	46667.949219
0.000000	1130.516235	46661.523438
0.000000	1131.834961	46782.777344
0.000000	1133.153687	47038.882813
0.000000	1134.472412	47095.054688
0.000000	1135.791138	46924.996094
0.000000	1137.109863	46961.808594
0.000000	1138.428589	47250.058594
0.000000	1139.747314	46829.804688
0.000000	1141.066040	47113.320313
0.000000	1142.384766	47327.218750
0.000000	1143.703491	47626.523438
0.000000	1145.022217	47321.160156
0.000000	1146.340942	47214.488281
0.000000	1147.659668	47501.957031
0.000000	1148.978394	47661.375000
0.000000	1150.297119	47566.394531
0.000000	1151.615845	47538.464844
0.000000	1152.934570	47469.054688
0.000000	1154.253296	47149.195313
0.000000	1155.572021	47474.503906
0.000000	1156.890747	47598.406250
0.000000	1158.209473	47708.175781
0.000000	1159.528198	47639.730469
0.000000	1160.846924	47815.007813
0.000000	1162.165649	47726.535156
0.000000	1163.484375	47825.488281
0.000000	1164.803101	48070.683594
0.000000	1166.121826	47920.269531
0.000000	1167.440552	47806.144531
0.000000	1168.759277	47817.492188
0.000000	1170.078003	48194.988281
0.000000	1171.396729	48470.484375
0.000000	1172.715454	48220.695313
0.000000	1174.034180	48088.976563
0.000000	1175.352905	48402.128906
0.000000	1176.671631	48617.660156
0.000000	1177.990356	48550.632813
0.000000	1179.309082	48523.398438
0.000000	1180.627808	48569.753906
0.000000	1181.946533	48497.957031
0.000000	1183.265259	48814.296875
0.000000	1184.583984	48903.859375
0.000000	1185.902710	48805.980469
0.000000	1187.221436	48927.152344
0.000000	1188.540161	49112.968750
0.000000	1189.858887	49024.285156
0.000000	1191.177612	49416.324219
0.000000	1192.496338	49606.546875
0.000000	1193.815063	49483.988281
0.000000	1195.133789	49481.433594
0.000000	1196.452515	49541.562500
0.000000	1197.771240	49470.507813
0.000000	1199.089966	49443.812500
0.000000	1200.408691	49686.667969
0.000000	1201.727417	49927.722656
0.000000	1203.046143	50129.839844
0.000000	1204.364868	49959.433594
0.000000	1205.683594	49880.085938
0.000000	1207.002319	50085.437500
0.000000	1208.321045	50159.738281
0.000000	1209.639771	50149.613281
0.000000	1210.958496	50342.058594
0.000000	1212.277222	50465.640625
0.000000	1213.595947	50295.214844
0.000000	1214.914673	50646.593750
0.000000	1216.233398	50545.136719
0.000000	1217.552124	50652.933594
0.000000	1218.870850	50385.347656
0.000000	1220.189575	50453.105469
0.000000	1221.508301	50558.066406
0.000000	1222.827026	50593.082031
0.000000	1224.145752	50849.832031
0.000000	1225.464478	50948.738281
0.000000	1226.783203	50906.179688
0.000000	1228.101929	51289.578125
0.000000	1229.420654	51294.859375
0.000000	1230.739380	51040.492188
0.000000	1232.058105	51180.656250
0.000000	1233.376831	51107.546875
0.000000	1234.695557	51477.871094
0.000000	1236.014282	51406.945313
0.000000	1237.333008	51509.691406
0.000000	1238.651733	51387.121094
0.000000	1239.970459	51334.078125
0.000000	1241.289185	51341.945313
0.000000	1242.607910	51309.550781
0.000000	1243.926636	51413.191406
0.000000	1245.245361	51455.011719
0.000000	1246.564087	51533.625000
0.000000	1247.882813	51542.527344
0.000000	1249.201538	51603.992188
0.000000	1250.520264	51689.847656
0.000000	1251.838989	51633.132813
0.000000	1253.157715	51514.667969
0.000000	1254.476440	51517.914063
0.000000	1255.795166	51582.078125
0.000000	1257.113892	51819.359375
0.000000	1258.432617	52066.968750
0.000000	1259.751343	51996.363281
0.000000	1261.070068	51935.390625
0.000000	1262.388794	52355.687500
0.000000	1263.707520	51928.320313
0.000000	1265.026245	52037.644531
0.000000	1266.344971	52025.296875
0.000000	1267.663696	52252.171875
0.000000	1268.982422	51885.105469
0.000000	1270.301147	51987.656250
0.000000	1271.619873	52368.015625
0.000000	1272.938599	52480.675781
0.000000	1274.257324	52450.972656
0.000000	1275.576050	52513.062500
0.000000	1276.894775	52623.140625
0.000000	1278.213501	52726.277344
0.000000	1279.532227	52661.476563
0.000000	1280.850952	52629.312500
0.000000	1282.169678	52812.878906
0.000000	1283.488403	53027.410156
0.000000	1284.807129	53243.238281
0.000000	1286.125854	52909.082031
0.000000	1287.444580	53019.160156
0.000000	1288.763306	53335.269531
0.000000	1290.082031	53487.203125
0.000000	1291.400757	53352.839844
0.000000	1292.719482	53355.675781
0.000000	1294.038208	53549.214844
0.000000	1295.356934	53496.582031
0.000000	1296.675659	53660.222656
0.000000	1297.994385	53583.687500
0.000000	1299.313110	53804.132813
0.000000	1300.631836	53830.945313
0.000000	1301.950562	54035.757813
0.000000	1303.269287	54426.957031
0.000000	1304.588013	54110.929688
0.000000	1305.906738	53906.183594
0.000000	1307.225464	53944.730469
0.000000	1308.544189	54109.089844
0.000000	1309.862915	54338.765625
0.000000	1311.181641	54523.859375
0.000000	1312.500366	54447.789063
0.000000	1313.819092	54246.328125
0.000000	1315.137817	54674.113281
0.000000	1316.456543	54831.730469
0.000000	1317.775269	54626.460938
0.000000	1319.093994	54964.027344
0.000000	1320.412720	54662.613281
0.000000	1321.731445	54673.675781
0.000000	1323.050171	54647.484375
0.000000	1324.368896	54769.039063
0.000000	1325.687622	54903.132813
0.000000	1327.006348	55167.492188
0.000000	1328.325073	55103.152344
0.000000	1329.643799	54821.250000
0.000000	1330.962524	55060.914063
0.000000	1332.281250	55307.398438
0.000000	1333.599976	55218.972656
0.000000	1334.918701	55007.984375
0.000000	1336.237427	55213.449219
0.000000	1337.556152	54850.281250
0.000000	1338.874878	55271.601563
0.000000	1340.193604	55324.062500
0.000000	1341.512329	55170.113281
0.000000	1342.831055	55327.742188
0.000000	1344.149780	55427.039063
0.000000	1345.468506	55296.597656
0.000000	1346.787231	55185.378906
0.000000	1348.105957	55313.414063
0.000000	1349.424683	55370.140625
0.000000	1350.743408	55209.914063
0.000000	1352.062134	55494.125000
0.000000	1353.380859	55234.007813
0.000000	1354.699585	55521.007813
0.000000	1356.018311	55304.394531
0.000000	1357.337036	55615.332031
0.000000	1358.655762	55459.019531
0.000000	1359.974487	55361.574219
0.000000	1361.293213	55674.410156
0.000000	1362.611938	55571.289063
0.000000	1363.930664	55479.160156
0.000000	1365.249390	55611.781250
0.000000	1366.568115	55713.984375
0.000000	1367.886841	55641.308594
0.000000	1369.205566	55727.390625
0.000000	1370.524292	56127.742188
0.000000	1371.843018	56054.167969
0.000000	1373.161743	56026.699219
0.000000	1374.480469	56137.976563
0.000000	1375.799194	56288.218750
0.000000	1377.117920	56024.785156
0.000000	1378.436646	56232.808594
0.000000	1379.755371	56463.710938
0.000000	1381.074097	56267.878906
0.000000	1382.392822	56422.976563
0.000000	1383.711548	56415.203125
0.000000	1385.030273	56434.218750
0.000000	1386.348999	56708.554688
0.000000	1387.667725	56746.617188
0.000000	1388.986450	56638.867188
0.000000	1390.305176	56975.621094
0.000000	1391.623901	57336.562500
0.000000	1392.942627	57638.785156
0.000000	1394.261353	57206.437500
0.000000	1395.580078	57015.484375
0.000000	1396.898804	57133.171875
0.000000	1398.217529	57707.808594
0.000000	1399.536255	57425.039063
0.000000	1400.854980	57605.117188
0.000000	1402.173706	57466.390625
0.000000	1403.492432	57547.812500
0.000000	1404.811157	57985.617188
0.000000	1406.129883	57942.640625
0.000000	1407.448608	57664.003906
0.000000	1408.767334	57958.507813
0.000000	1410.086060	58189.351563
0.000000	1411.404785	57911.835938
0.000000	1412.723511	58236.890625
0.000000	1414.042236	58105.847656
0.000000	1415.360962	58165.410156
0.000000	1416.679688	58130.535156
0.000000	1417.998413	58188.781250
0.000000	1419.317139	58149.027344
0.000000	1420.635864	58178.531250
0.000000	1421.954590	58164.101563
0.000000	1423.273315	58635.410156
0.000000	1424.592041	58851.195313
0.000000	1425.910767	58840.164063
0.000000	1427.229492	58617.984375
0.000000	1428.548218	58342.023438
0.000000	1429.866943	58352.359375
0.000000	1431.185669	58464.730469
0.000000	1432.504395	58651.757813
0.000000	1433.823120	58994.101563
0.000000	1435.141846	58682.675781
0.000000	1436.460571	58841.500000
0.000000	1437.779297	59185.863281
0.000000	1439.098022	59178.960938
0.000000	1440.416748	58885.585938
0.000000	1441.735474	58900.652344
0.000000	1443.054199	59093.703125
0.000000	1444.372925	58918.996094
0.000000	1445.691650	59172.339844
0.000000	1447.010376	58806.089844
0.000000	1448.329102	58769.500000
0.000000	1449.647827	58877.304688
0.000000	1450.966553	59118.292969
0.000000	1452.285278	59119.226563
0.000000	1453.604004	58871.804688
0.000000	1454.922729	58932.164063
0.000000	1456.241455	59163.671875
0.000000	1457.560181	59275.433594
0.000000	1458.878906	59446.398438
0.000000	1460.197632	59358.574219
0.000000	1461.516357	59222.902344
0.000000	1462.835083	59258.757813
0.000000	1464.153809	59197.531250
0.000000	1465.472534	59430.968750
0.000000	1466.791260	59135.066406
0.000000	1468.109985	59583.425781
0.000000	1469.428711	59404.843750
0.000000	1470.747437	59462.867188
0.000000	1472.066162	59421.777344
0.000000	1473.384888	58897.312500
0.000000	1474.703613	59149.472656
0.000000	1476.022339	59260.316406
0.000000	1477.341064	59043.382813
0.000000	1478.659790	59156.914063
0.000000	1479.978516	59121.886719
0.000000	1481.297241	59157.445313
0.000000	1482.615967	59305.746094
0.000000	1483.934692	59353.230469
0.000000	1485.253418	59082.550781
0.000000	1486.572144	59238.769531
0.000000	1487.890869	59385.027344
0.000000	1489.209595	59342.167969
0.000000	1490.528320	59719.078125
0.000000	1491.847046	59728.390625
0.000000	1493.165771	59540.933594
0.000000	1494.484497	59449.132813
0.000000	1495.803223	59498.988281
0.000000	1497.121948	59364.226563
0.000000	1498.440674	59380.714844
0.000000	1499.759399	59347.597656
0.000000	1501.078125	59441.109375
0.000000	1502.396851	59667.652344
0.000000	1503.715576	59752.867188
0.000000	1505.034302	59604.644531
0.000000	1506.353027	59518.878906
0.000000	1507.671753	59779.234375
0.000000	1508.990479	59643.738281
0.000000	1510.309204	59636.707031
0.000000	1511.627930	59825.339844
0.000000	1512.946655	59986.417969
0.000000	1514.265381	60173.140625
0.000000	1515.584106	60013.433594
0.000000	1516.902832	60118.609375
0.000000	1518.221558	60440.035156
0.000000	1519.540283	60323.402344
0.000000	1520.859009	60277.679688
0.000000	1522.177734	59938.535156
0.000000	1523.496460	60290.843750
0.000000	1524.815186	60528.660156
0.000000	1526.133911	60376.542969
0.000000	1527.452637	60558.945313
0.000000	1528.771362	60497.945313
0.000000	1530.090088	60020.468750
0.000000	1531.408813	60116.750000
0.000000	1532.727539	60436.253906
0.000000	1534.046265	60264.585938
0.000000	1535.364990	60393.835938
0.000000	1536.683716	60371.800781
0.000000	1538.002441	60110.042969
0.000000	1539.321167	60567.843750
0.000000	1540.639893	60333.957031
0.000000	1541.958618	60433.835938
0.000000	1543.277344	60465.550781
0.000000	1544.596069	60046.898438
0.000000	1545.914795	60480.527344
0.000000	1547.233521	60668.800781
0.000000	1548.552246	60711.234375
0.000000	1549.870972	60640.281250
0.000000	1551.189697	60587.148438
0.000000	1552.508423	60452.230469
0.000000	1553.827148	60454.468750
0.000000	1555.145874	60480.281250
0.000000	1556.464600	60449.601563
0.000000	1557.783325	60512.242188
0.000000	1559.102051	60611.937500
0.000000	1560.420776	60543.988281
0.000000	1561.739502	60400.414063
0.000000	1563.058228	60379.042969
0.000000	1564.376953	60435.074219
0.000000	1565.695679	60551.195313
0.000000	1567.014404	60611.976563
0.000000	1568.333130	60337.875000
0.000000	1569.651855	60472.703125
0.000000	1570.970581	60502.972656
0.000000	1572.289307	60603.199219
0.000000	1573.608032	60260.367188
0.000000	1574.926758	60490.257813
0.000000	1576.245483	60443.500000
0.000000	1577.564209	60754.503906
0.000000	1578.882935	60719.351563
0.000000	1580.201660	60439.128906
0.000000	1581.520386	60548.218750
0.000000	1582.839111	60731.871094
0.000000	1584.157837	60912.781250
0.000000	1585.476563	60914.609375
0.000000	1586.795288	60593.500000
0.000000	1588.114014	60367.875000
0.000000	1589.432739	60385.839844
0.000000	1590.751465	60433.468750
0.000000	1592.070190	60606.207031
0.000000	1593.388916	60676.894531
0.000000	1594.707642	60606.093750
0.000000	1596.026367	60802.144531
0.000000	1597.345093	60788.222656
0.000000	1598.663818	60679.933594
0.000000	1599.982544	60711.976563
0.000000	1601.301270	60914.468750
0.000000	1602.619995	60522.539063
0.000000	1603.938721	60906.964844
0.000000	1605.257446	61037.238281
0.000000	1606.576172	60689.363281
0.000000	1607.894897	60871.847656
0.000000	1609.213623	60838.226563
0.000000	1610.532349	61221.031250
0.000000	1611.851074	60934.113281
0.000000	1613.169800	61070.917969
0.000000	1614.488525	60932.210938
0.000000	1615.807251	61373.917969
0.000000	1617.125977	61598.156250
0.000000	1618.444702	61495.136719
0.000000	1619.763428	61212.265625
0.000000	1621.082153	61277.156250
0.000000	1622.400879	61427.941406
0.000000	1623.719604	61228.843750
0.000000	1625.038330	61309.796875
0.000000	1626.357056	61603.320313
0.000000	1627.675781	61917.589844
0.000000	1628.994507	61993.312500
0.000000	1630.313232	61626.281250
0.000000	1631.631958	61588.562500
0.000000	1632.950684	61694.140625
0.000000	1634.269409	61641.687500
0.000000	1635.588135	61945.902344
0.000000	1636.906860	62086.691406
0.000000	1638.225586	61911.472656
0.000000	1639.544312	61776.042969
0.000000	1640.863037	61902.535156
0.000000	1642.181763	62183.394531
0.000000	1643.500488	61808.460938
0.000000	1644.819214	61834.734375
0.000000	1646.137939	62453.968750
0.000000	1647.456665	62428.824219
0.000000	1648.775391	62575.210938
0.000000	1650.094116	62451.511719
0.000000	1651.412842	62409.785156
0.000000	1652.731567	61999.226563
0.000000	1654.050293	62440.335938
0.000000	1655.369019	62191.058594
0.000000	1656.687744	62571.906250
0.000000	1658.006470	62647.574219
0.000000	1659.325195	62405.160156
0.000000	1660.643921	62367.628906
0.000000	1661.962646	62465.707031
0.000000	1663.281372	62530.503906
0.000000	1664.600098	62634.953125
0.000000	1665.918823	62398.832031
0.000000	1667.237549	62262.914063
0.000000	1668.556274	62599.183594
0.000000	1669.875000	62662.976563
0.000000	1671.193726	62417.171875
0.000000	1672.512451	62370.148438
0.000000	1673.831177	62351.386719
0.000000	1675.149902	62343.589844
0.000000	1676.468628	62530.234375
0.000000	1677.787354	62630.335938
0.000000	1679.106079	62398.625000
0.000000	1680.424805	62682.453125
0.000000	1681.743530	62352.027344
0.000000	1683.062256	62595.796875
0.000000	1684.380981	62356.519531
0.000000	1685.699707	62569.289063
0.000000	1687.018433	62297.371094
0.000000	1688.337158	62738.070313
0.000000	1689.655884	62256.015625
0.000000	1690.974609	62455.156250
0.000000	1692.293335	62616.933594
0.000000	1693.612061	62631.781250
0.000000	1694.930786	62435.191406
0.000000	1696.249512	62796.335938
0.000000	1697.568237	62386.687500
0.000000	1698.886963	62665.371094
0.000000	1700.205688	62068.382813
0.000000	1701.524414	62364.402344
0.000000	1702.843140	62216.425781
0.000000	1704.161865	62480.957031
0.000000	1705.480591	62463.558594
0.000000	1706.799316	62624.820313
0.000000	1708.118042	62659.613281
0.000000	1709.436768	62441.210938
0.000000	1710.755493	62551.464844
0.000000	1712.074219	62504.148438
0.000000	1713.392944	62579.035156
0.000000	1714.711670	62767.960938
0.000000	1716.030396	62816.546875
0.000000	1717.349121	62690.312500
0.000000	1718.667847	62752.289063
0.000000	1719.986572	62878.136719
0.000000	1721.305298	62828.582031
0.000000	1722.624023	62746.609375
0.000000	1723.942749	62606.796875
0.000000	1725.261475	62612.878906
0.000000	1726.580200	62548.218750
0.000000	1727.898926	63041.476563
0.000000	1729.217651	63362.308594
0.000000	1730.536377	63320.148438
0.000000	1731.855103	63401.429688
0.000000	1733.173828	63373.277344
0.000000	1734.492554	63286.882813
0.000000	1735.811279	63353.343750
0.000000	1737.130005	63329.378906
0.000000	1738.448730	63780.660156
0.000000	1739.767456	63348.945313
0.000000	1741.086182	63684.910156
0.000000	1742.404907	63708.175781
0.000000	1743.723633	63657.035156
0.000000	1745.042358	63811.171875
0.000000	1746.361084	63551.074219
0.000000	1747.679810	64046.488281
0.000000	1748.998535	64117.710938
0.000000	1750.317261	63417.320313
0.000000	1751.635986	63512.199219
0.000000	1752.954712	64165.621094
0.000000	1754.273438	64296.691406
0.000000	1755.592163	64321.304688
0.000000	1756.910889	64164.046875
0.000000	1758.229614	64067.242188
0.000000	1759.548340	64338.882813
0.000000	1760.867065	64607.886719
0.000000	1762.185791	64353.000000
0.000000	1763.504517	64174.886719
0.000000	1764.823242	63969.003906
0.000000	1766.141968	64075.925781
0.000000	1767.460693	64431.707031
0.000000	1768.779419	64524.847656
0.000000	1770.098145	64377.199219
0.000000	1771.416870	64274.648438
0.000000	1772.735596	64441.871094
0.000000	1774.054321	64373.816406
0.000000	1775.373047	64539.835938
0.000000	1776.691772	64730.902344
0.000000	1778.010498	64671.531250
0.000000	1779.329224	64641.671875
0.000000	1780.647949	64675.765625
0.000000	1781.966675	64833.890625
0.000000	1783.285400	64644.265625
0.000000	1784.604126	64472.707031
0.000000	1785.922852	64757.531250
0.000000	1787.241577	64732.894531
0.000000	1788.560303	64442.261719
0.000000	1789.879028	64477.417969
0.000000	1791.197754	64711.675781
0.000000	1792.516479	64952.285156
0.000000	1793.835205	65080.390625
0.000000	1795.153931	65060.609375
0.000000	1796.472656	64913.558594
0.000000	1797.791382	64773.535156
0.000000	1799.110107	64891.000000
0.000000	1800.428833	64900.218750
0.000000	1801.747559	64839.804688
0.000000	1803.066284	64984.121094
0.000000	1804.385010	64948.054688
0.000000	1805.703735	65068.335938
0.000000	1807.022461	65105.382813
0.000000	1808.341187	65151.937500
0.000000	1809.659912	65096.546875
0.000000	1810.978638	65000.257813
0.000000	1812.297363	65086.605469
0.000000	1813.616089	65092.132813
0.000000	1814.934814	65039.953125
0.000000	1816.253540	64947.878906
0.000000	1817.572266	65035.253906
0.000000	1818.890991	64708.187500
0.000000	1820.209717	64823.648438
0.000000	1821.528442	65444.550781
0.000000	1822.847168	65188.105469
0.000000	1824.165894	65035.906250
0.000000	1825.484619	65186.632813
0.000000	1826.803345	65655.984375
0.000000	1828.122070	65656.140625
0.000000	1829.440796	65152.699219
0.000000	1830.759521	65596.609375
0.000000	1832.078247	65670.695313
0.000000	1833.396973	65585.515625
0.000000	1834.715698	65757.492188
0.000000	1836.034424	65905.023438
0.000000	1837.353149	65333.207031
0.000000	1838.671875	65638.570313
0.000000	1839.990601	65911.953125
0.000000	1841.309326	65969.304688
0.000000	1842.628052	66389.953125
0.000000	1843.946777	65891.523438
0.000000	1845.265503	66009.093750
0.000000	1846.584229	66436.359375
0.000000	1847.902954	66207.140625
0.000000	1849.221680	66272.671875
0.000000	1850.540405	66269.289063
0.000000	1851.859131	66701.835938
0.000000	1853.177856	66470.828125
0.000000	1854.496582	66604.796875
0.000000	1855.815308	66996.929688
0.000000	1857.134033	66523.156250
0.000000	1858.452759	66877.250000
0.000000	1859.771484	66700.640625
0.000000	1861.090210	66904.226563
0.000000	1862.408936	67228.851563
0.000000	1863.727661	66887.070313
0.000000	1865.046387	66886.984375
0.000000	1866.365112	67286.632813
0.000000	1867.683838	67296.242188
0.000000	1869.002563	67601.984375
0.000000	1870.321289	67235.843750
0.000000	1871.640015	67342.601563
0.000000	1872.958740	67736.789063
0.000000	1874.277466	67354.132813
0.000000	1875.596191	67805.960938
0.000000	1876.914917	67504.164063
0.000000	1878.233643	67850.359375
0.000000	1879.552368	67749.757813
0.000000	1880.871094	68322.078125
0.000000	1882.189819	68545.695313
0.000000	1883.508545	67886.937500
0.000000	1884.827271	67727.781250
0.000000	1886.145996	67787.273438
0.000000	1887.464722	67939.710938
0.000000	1888.783447	67843.703125
0.000000	1890.102173	67886.312500
0.000000	1891.420898	68042.289063
0.000000	1892.739624	67893.843750
0.000000	1894.058350	68585.679688
0.000000	1895.377075	68147.015625
0.000000	1896.695801	68760.171875
0.000000	1898.014526	68193.312500
0.000000	1899.333252	68044.726563
0.000000	1900.651978	68536.570313
0.000000	1901.970703	68045.312500
0.000000	1903.289429	68247.781250
0.000000	1904.608154	68019.148438
0.000000	1905.926880	68498.289063
0.000000	1907.245605	68601.476563
0.000000	1908.564331	68684.000000
0.000000	1909.883057	68836.570313
0.000000	1911.201782	68701.867188
0.000000	1912.520508	68394.789063
0.000000	1913.839233	68516.437500
0.000000	1915.157959	68312.125000
0.000000	1916.476685	68227.460938
0.000000	1917.795410	68443.523438
0.000000	1919.114136	68341.265625
0.000000	1920.432861	68251.656250
0.000000	1921.751587	68446.679688
0.000000	1923.070313	68276.351563
0.000000	1924.389038	68136.539063
0.000000	1925.707764	68493.929688
0.000000	1927.026489	68144.218750
0.000000	1928.345215	68377.187500
0.000000	1929.663940	68591.265625
0.000000	1930.982666	68515.187500
0.000000	1932.301392	68172.679688
0.000000	1933.620117	68391.523438
0.000000	1934.938843	68129.140625
0.000000	1936.257568	68042.812500
0.000000	1937.576294	68377.132813
0.000000	1938.895020	68658.382813
0.000000	1940.213745	68586.835938
0.000000	1941.532471	68612.710938
0.000000	1942.851196	68289.937500
0.000000	1944.169922	68211.835938
0.000000	1945.488647	68615.125000
0.000000	1946.807373	68776.718750
0.000000	1948.126099	68648.835938
0.000000	1949.444824	68431.507813
0.000000	1950.763550	68597.609375
0.000000	1952.082275	68022.375000
0.000000	1953.401001	68802.335938
0.000000	1954.719727	68866.375000
0.000000	1956.038452	68892.195313
0.000000	1957.357178	68924.289063
0.000000	1958.675903	68661.992188
0.000000	1959.994629	68829.875000
0.000000	1961.313354	69761.031250
0.000000	1962.632080	69128.585938
0.000000	1963.950806	69229.640625
0.000000	1965.269531	69390.382813
0.000000	1966.588257	69245.726563
0.000000	1967.906982	69368.882813
0.000000	1969.225708	69491.500000
0.000000	1970.544434	69534.796875
0.000000	1971.863159	69462.312500
0.000000	1973.181885	69818.171875
0.000000	1974.500610	69787.015625
0.000000	1975.819336	69468.750000
0.000000	1977.138062	69728.351563
0.000000	1978.456787	69905.937500
0.000000	1979.775513	70129.796875
0.000000	1981.094238	69629.929688
0.000000	1982.412964	69948.742188
0.000000	1983.731689	70006.937500
0.000000	1985.050415	70234.507813
0.000000	1986.369141	70097.789063
0.000000	1987.687866	70219.757813
0.000000	1989.006592	70503.742188
0.000000	1990.325317	70502.687500
0.000000	1991.644043	70437.132813
0.000000	1992.962769	70328.804688
0.000000	1994.281494	70398.218750
0.000000	1995.600220	70391.171875
0.000000	1996.918945	70592.101563
0.000000	1998.237671	70826.156250
0.000000	1999.556396	70735.945313
0.000000	2000.875122	70789.515625
0.000000	2002.193848	70996.171875
0.000000	2003.512573	70922.843750
0.000000	2004.831299	71074.460938
0.000000	2006.150024	71079.570313
0.000000	2007.468750	70930.984375
0.000000	2008.787476	70972.375000
0.000000	2010.106201	71209.125000
0.000000	2011.424927	71249.078125
0.000000	2012.743652	71039.468750
0.000000	2014.062378	71155.929688
0.000000	2015.381104	71581.875000
0.000000	2016.699829	71773.562500
0.000000	2018.018555	71688.281250
0.000000	2019.337280	71569.414063
0.000000	2020.656006	71312.437500
0.000000	2021.974731	71880.812500
0.000000	2023.293457	71601.210938
0.000000	2024.612183	71543.578125
0.000000	2025.930908	71558.890625
0.000000	2027.249634	71489.867188
0.000000	2028.568359	71725.718750
0.000000	2029.887085	71291.171875
0.000000	2031.205811	71480.226563
0.000000	2032.524536	71518.101563
0.000000	2033.843262	71657.000000
0.000000	2035.161987	71440.726563
0.000000	2036.480713	71640.117188
0.000000	2037.799438	72021.281250
0.000000	2039.118164	71785.835938
0.000000	2040.436890	71399.367188
0.000000	2041.755615	72041.250000
0.000000	2043.074341	71631.132813
0.000000	2044.393066	71594.750000
0.000000	2045.711792	71809.546875
0.000000	2047.030518	71942.742188
0.000000	2048.349121	72037.257813
0.000000	2049.667725	72029.007813
0.000000	2050.986328	72093.414063
0.000000	2052.304932	72078.375000
0.000000	2053.623535	72025.617188
0.000000	2054.942139	71620.156250
0.000000	2056.260742	72106.914063
0.000000	2057.579346	72197.343750
0.000000	2058.897949	71785.882813
0.000000	2060.216553	72216.750000
0.000000	2061.535156	72037.171875
0.000000	2062.853760	72048.453125
0.000000	2064.172363	71767.250000
0.000000	2065.490967	71919.382813
0.000000	2066.809570	72171.265625
0.000000	2068.128174	72309.164063
0.000000	2069.446777	72358.046875
0.000000	2070.765381	72440.851563
0.000000	2072.083984	72501.179688
0.000000	2073.402588	72561.695313
0.000000	2074.721191	72594.507813
0.000000	2076.039795	72733.695313
0.000000	2077.358398	72832.312500
0.000000	2078.677002	72795.976563
0.000000	2079.995605	72949.687500
0.000000	2081.314209	73041.992188
0.000000	2082.632813	72988.429688
0.000000	2083.951416	73211.679688
0.000000	2085.270020	72963.406250
0.000000	2086.588623	73327.695313
0.000000	2087.907227	73298.656250
0.000000	2089.225830	73326.679688
0.000000	2090.544434	73701.132813
0.000000	2091.863037	73395.312500
0.000000	2093.181641	73600.414063
0.000000	2094.500244	73602.468750
0.000000	2095.818848	73931.078125
0.000000	2097.137451	73778.742188
0.000000	2098.456055	73983.507813
0.000000	2099.774658	74319.304688
0.000000	2101.093262	74505.812500
0.000000	2102.411865	74305.710938
0.000000	2103.730469	74398.679688
0.000000	2105.049072	74555.320313
0.000000	2106.367676	74014.039063
0.000000	2107.686279	74403.515625
0.000000	2109.004883	74772.101563
0.000000	2110.323486	75032.570313
0.000000	2111.642090	74357.093750
0.000000	2112.960693	74254.273438
0.000000	2114.279297	74457.406250
0.000000	2115.597900	74973.343750
0.000000	2116.916504	75239.921875
0.000000	2118.235107	75247.406250
0.000000	2119.553711	75050.109375
0.000000	2120.872314	74865.750000
0.000000	2122.190918	74896.296875
0.000000	2123.509521	75007.734375
0.000000	2124.828125	75217.273438
0.000000	2126.146729	75149.742188
0.000000	2127.465332	75048.562500
0.000000	2128.783936	75425.820313
0.000000	2130.102539	75134.421875
0.000000	2131.421143	75209.093750
0.000000	2132.739746	75140.078125
0.000000	2134.058350	75072.906250
0.000000	2135.376953	75215.031250
0.000000	2136.695557	75239.585938
0.000000	2138.014160	75741.914063
0.000000	2139.332764	75276.312500
0.000000	2140.651367	75512.648438
0.000000	2141.969971	75387.656250
0.000000	2143.288574	75734.703125
0.000000	2144.607178	75335.156250
0.000000	2145.925781	75605.703125
0.000000	2147.244385	75298.921875
0.000000	2148.562988	75184.117188
0.000000	2149.881592	75535.148438
0.000000	2151.200195	75396.343750
0.000000	2152.518799	75149.937500
0.000000	2153.837402	75480.656250
0.000000	2155.156006	75544.476563
0.000000	2156.474609	75276.429688
0.000000	2157.793213	75082.968750
0.000000	2159.111816	75175.007813
0.000000	2160.430420	75346.281250
0.000000	2161.749023	75533.218750
0.000000	2163.067627	75623.125000
0.000000	2164.386230	75376.570313
0.000000	2165.704834	75182.445313
0.000000	2167.023438	75427.398438
0.000000	2168.342041	75264.976563
0.000000	2169.660645	75250.320313
0.000000	2170.979248	75537.593750
0.000000	2172.297852	75250.187500
0.000000	2173.616455	75212.140625
0.000000	2174.935059	75040.328125
0.000000	2176.253662	74935.281250
0.000000	2177.572266	75469.562500
0.000000	2178.890869	75306.226563
0.000000	2180.209473	75434.164063
0.000000	2181.528076	75306.539063
0.000000	2182.846680	75331.453125
0.000000	2184.165283	75299.953125
0.000000	2185.483887	75352.812500
0.000000	2186.802490	75286.367188
0.000000	2188.121094	75472.968750
0.000000	2189.439697	75811.812500
0.000000	2190.758301	75839.335938
0.000000	2192.076904	75773.531250
0.000000	2193.395508	75925.156250
0.000000	2194.714111	75600.585938
0.000000	2196.032715	75576.351563
0.000000	2197.351318	75833.804688
0.000000	2198.669922	75822.312500
0.000000	2199.988525	75586.796875
0.000000	2201.307129	75586.953125
0.000000	2202.625732	75373.515625
0.000000	2203.944336	75529.046875
0.000000	2205.262939	75470.742188
0.000000	2206.581543	75895.078125
0.000000	2207.900146	75736.539063
0.000000	2209.218750	75727.953125
0.000000	2210.537354	75560.125000
0.000000	2211.855957	76264.914063
0.000000	2213.174561	75803.062500
0.000000	2214.493164	76068.750000
0.000000	2215.811768	76021.406250
0.000000	2217.130371	75679.859375
0.000000	2218.448975	76138.531250
0.000000	2219.767578	76401.187500
0.000000	2221.086182	75840.250000
0.000000	2222.404785	76042.765625
0.000000	2223.723389	76206.539063
0.000000	2225.041992	76043.234375
0.000000	2226.360596	76285.179688
0.000000	2227.679199	76299.648438
0.000000	2228.997803	76193.218750
0.000000	2230.316406	76107.015625
0.000000	2231.635010	76146.335938
0.000000	2232.953613	76030.195313
0.000000	2234.272217	76381.039063
0.000000	2235.590820	76646.867188
0.000000	2236.909424	75922.007813
0.000000	2238.228027	76124.890625
0.000000	2239.546631	76199.351563
0.000000	2240.865234	76730.468750
0.000000	2242.183838	76200.640625
0.000000	2243.502441	76855.742188
0.000000	2244.821045	76147.187500
0.000000	2246.139648	76466.937500
0.000000	2247.458252	76158.539063
0.000000	2248.776855	76345.570313
0.000000	2250.095459	76635.085938
0.000000	2251.414063	76308.351563
0.000000	2252.732666	76292.554688
0.000000	2254.051270	76799.734375
0.000000	2255.369873	76565.093750
0.000000	2256.688477	76358.625000
0.000000	2258.007080	76284.851563
0.000000	2259.325684	76346.734375
0.000000	2260.644287	76536.460938
0.000000	2261.962891	76715.500000
0.000000	2263.281494	76095.476563
0.000000	2264.600098	76244.812500
0.000000	2265.918701	76910.203125
0.000000	2267.237305	76790.468750
0.000000	2268.555908	77069.218750
0.000000	2269.874512	76440.375000
0.000000	2271.193115	76790.742188
0.000000	2272.511719	76658.625000
0.000000	2273.830322	76390.976563
0.000000	2275.148926	76581.148438
0.000000	2276.467529	76757.984375
0.000000	2277.786133	76594.000000
0.000000	2279.104736	76839.265625
0.000000	2280.423340	76639.757813
0.000000	2281.741943	76840.921875
0.000000	2283.060547	77082.007813
0.000000	2284.379150	76651.640625
0.000000	2285.697754	76643.382813
0.000000	2287.016357	76736.085938
0.000000	2288.334961	76847.429688
0.000000	2289.653564	76864.679688
0.000000	2290.972168	77016.101563
0.000000	2292.290771	77399.812500
0.000000	2293.609375	76998.648438
0.000000	2294.927979	76902.414063
0.000000	2296.246582	77075.445313
0.000000	2297.565186	77286.273438
0.000000	2298.883789	77443.765625
0.000000	2300.202393	77342.867188
0.000000	2301.520996	77184.312500
0.000000	2302.839600	77196.515625
0.000000	2304.158203	77206.859375
0.000000	2305.476807	77200.960938
0.000000	2306.795410	77110.484375
0.000000	2308.114014	77213.164063
0.000000	2309.432617	77096.414063
0.000000	2310.751221	77181.046875
0.000000	2312.069824	77129.851563
0.000000	2313.388428	77039.078125
0.000000	2314.707031	77645.906250
0.000000	2316.025635	77593.007813
0.000000	2317.344238	77435.906250
0.000000	2318.662842	77674.304688
0.000000	2319.981445	77384.046875
0.000000	2321.300049	77419.968750
0.000000	2322.618652	77872.312500
0.000000	2323.937256	77820.406250
0.000000	2325.255859	78047.460938
0.000000	2326.574463	77890.757813
0.000000	2327.893066	77855.562500
0.000000	2329.211670	77758.992188
0.000000	2330.530273	78016.656250
0.000000	2331.848877	78276.039063
0.000000	2333.167480	78103.671875
0.000000	2334.486084	78197.460938
0.000000	2335.804688	78016.218750
0.000000	2337.123291	78301.289063
0.000000	2338.441895	78278.851563
0.000000	2339.760498	78246.976563
0.000000	2341.079102	78172.492188
0.000000	2342.397705	78287.421875
0.000000	2343.716309	78257.578125
0.000000	2345.034912	78721.515625
0.000000	2346.353516	78697.742188
0.000000	2347.672119	78572.789063
0.000000	2348.990723	78804.507813
0.000000	2350.309326	78911.070313
0.000000	2351.627930	78800.976563
0.000000	2352.946533	78485.343750
0.000000	2354.265137	78637.937500
0.000000	2355.583740	78798.929688
0.000000	2356.902344	78830.023438
0.000000	2358.220947	78941.351563
0.000000	2359.539551	79104.835938
0.000000	2360.858154	78439.265625
0.000000	2362.176758	79160.687500
0.000000	2363.495361	78767.625000
0.000000	2364.813965	78612.539063
0.000000	2366.132568	78982.796875
0.000000	2367.451172	78925.468750
0.000000	2368.769775	78830.203125
0.000000	2370.088379	79055.679688
0.000000	2371.406982	79154.445313
0.000000	2372.725586	79123.437500
0.000000	2374.044189	79009.085938
0.000000	2375.362793	79496.296875
0.000000	2376.681396	78845.148438
0.000000	2378.000000	79272.039063
0.000000	2379.318604	78796.867188
0.000000	2380.637207	79117.187500
0.000000	2381.955811	78942.976563
0.000000	2383.274414	79350.781250
0.000000	2384.593018	79227.578125
0.000000	2385.911621	79866.375000
0.000000	2387.230225	79356.804688
0.000000	2388.548828	79283.093750
0.000000	2389.867432	79535.078125
0.000000	2391.186035	79248.335938
0.000000	2392.504639	79069.296875
0.000000	2393.823242	79243.976563
0.000000	2395.141846	79547.429688
0.000000	2396.460449	79585.250000
0.000000	2397.779053	79704.828125
0.000000	2399.097656	79605.390625
0.000000	2400.416260	79234.140625
0.000000	2401.734863	79762.679688
0.000000	2403.053467	79518.078125
0.000000	2404.372070	79635.062500
0.000000	2405.690674	79549.171875
0.000000	2407.009277	79715.742188
0.000000	2408.327881	79296.929688
0.000000	2409.646484	79716.437500
0.000000	2410.965088	79631.093750
0.000000	2412.283691	79382.445313
0.000000	2413.602295	79394.296875
0.000000	2414.920898	79642.195313
0.000000	2416.239502	79281.851563
0.000000	2417.558105	79764.875000
0.000000	2418.876709	79699.312500
0.000000	2420.195313	79505.914063
0.000000	2421.513916	79878.320313
0.000000	2422.832520	79777.031250
0.000000	2424.151123	79391.515625
0.000000	2425.469727	79547.898438
0.000000	2426.788330	79744.445313
0.000000	2428.106934	79869.960938
0.000000	2429.425537	79488.781250
0.000000	2430.744141	79635.085938
0.000000	2432.062744	79623.742188
0.000000	2433.381348	79425.140625
0.000000	2434.699951	79257.406250
0.000000	2436.018555	79316.328125
0.000000	2437.337158	79870.718750
0.000000	2438.655762	80052.609375
0.000000	2439.974365	79633.765625
0.000000	2441.292969	79524.890625
0.000000	2442.611572	79339.578125
0.000000	2443.930176	79584.734375
0.000000	2445.248779	79835.460938
0.000000	2446.567383	79797.234375
0.000000	2447.885986	79586.398438
0.000000	2449.204590	79836.851563
0.000000	2450.523193	79491.062500
0.000000	2451.841797	79711.070313
0.000000	2453.160400	80284.937500
0.000000	2454.479004	80105.859375
0.000000	2455.797607	79998.960938
0.000000	2457.116211	79914.695313
0.000000	2458.434814	79477.703125
0.000000	2459.753418	79622.445313
0.000000	2461.072021	79866.671875
0.000000	2462.390625	79952.945313
0.000000	2463.709229	80085.062500
0.000000	2465.027832	79792.875000
0.000000	2466.346436	79862.351563
0.000000	2467.665039	79917.515625
0.000000	2468.983643	79375.632813
0.000000	2470.302246	79466.750000
0.000000	2471.620850	79836.359375
0.000000	2472.939453	80262.968750
0.000000	2474.258057	79915.484375
0.000000	2475.576660	79499.906250
0.000000	2476.895264	79681.765625
0.000000	2478.213867	79714.804688
0.000000	2479.532471	79564.140625
0.000000	2480.851074	79970.046875
0.000000	2482.169678	79520.265625
0.000000	2483.488281	79634.671875
0.000000	2484.806885	79284.234375
0.000000	2486.125488	79463.500000
0.000000	2487.444092	79605.132813
0.000000	2488.762695	79826.921875
0.000000	2490.081299	79683.500000
0.000000	2491.399902	79638.734375
0.000000	2492.718506	79707.375000
0.000000	2494.037109	79585.648438
0.000000	2495.355713	79598.023438
0.000000	2496.674316	79191.257813
0.000000	2497.992920	79608.007813
0.000000	2499.311523	79738.867188
0.000000	2500.630127	79443.070313
0.000000	2501.948730	79419.828125
0.000000	2503.267334	79166.351563
0.000000	2504.585938	79375.757813
0.000000	2505.904541	79023.796875
0.000000	2507.223145	79029.835938
0.000000	2508.541748	78884.710938
0.000000	2509.860352	79267.773438
0.000000	2511.178955	78779.468750
0.000000	2512.497559	78921.078125
0.000000	2513.816162	78840.289063
0.000000	2515.134766	78982.265625
0.000000	2516.453369	78322.265625
0.000000	2517.771973	78656.390625
0.000000	2519.090576	78586.804688
0.000000	2520.409180	78527.054688
0.000000	2521.727783	78510.414063
0.000000	2523.046387	78478.718750
0.000000	2524.364990	78311.968750
0.000000	2525.683594	78287.265625
0.000000	2527.002197	78126.210938
0.000000	2528.320801	78182.757813
0.000000	2529.639404	78539.289063
0.000000	2530.958008	78498.507813
0.000000	2532.276611	78077.601563
0.000000	2533.595215	77728.617188
0.000000	2534.913818	77468.851563
0.000000	2536.232422	77971.835938
0.000000	2537.551025	78314.867188
0.000000	2538.869629	78009.718750
0.000000	2540.188232	77903.179688
0.000000	2541.506836	77864.507813
0.000000	2542.825439	77854.000000
0.000000	2544.144043	77734.421875
0.000000	2545.462646	77726.820313
0.000000	2546.781250	77844.351563
0.000000	2548.099854	77490.625000
0.000000	2549.418457	77704.171875
0.000000	2550.737061	77680.898438
0.000000	2552.055664	77498.867188
0.000000	2553.374268	77515.531250
0.000000	2554.692871	77371.437500
0.000000	2556.011475	77478.609375
0.000000	2557.330078	77589.093750
0.000000	2558.648682	77651.000000
0.000000	2559.967285	77344.203125
0.000000	2561.285889	77387.953125
0.000000	2562.604492	77297.984375
0.000000	2563.923096	77358.281250
0.000000	2565.241699	77400.687500
0.000000	2566.560303	77218.101563
0.000000	2567.878906	77067.710938
0.000000	2569.197510	77217.765625
0.000000	2570.516113	77389.554688
0.000000	2571.834717	77173.039063
0.000000	2573.153320	77147.601563
0.000000	2574.471924	77443.843750
0.000000	2575.790527	77372.406250
0.000000	2577.109131	77164.164063
0.000000	2578.427734	77515.984375
0.000000	2579.746338	77442.437500
0.000000	2581.064941	77286.406250
0.000000	2582.383545	77078.757813
0.000000	2583.702148	76829.226563
0.000000	2585.020752	77142.710938
0.000000	2586.339355	76915.007813
0.000000	2587.657959	76777.257813
0.000000	2588.976563	76664.664063
0.000000	2590.295166	76368.742188
0.000000	2591.613770	76463.000000
0.000000	2592.932373	76662.000000
0.000000	2594.250977	76554.937500
0.000000	2595.569580	76563.687500
0.000000	2596.888184	76826.632813
0.000000	2598.206787	76900.429688
0.000000	2599.525391	76243.867188
0.000000	2600.843994	77039.734375
0.000000	2602.162598	76439.039063
0.000000	2603.481201	76506.242188
0.000000	2604.799805	76141.906250
0.000000	2606.118408	76270.835938
0.000000	2607.437012	76527.304688
0.000000	2608.755615	76135.367188
0.000000	2610.074219	75920.820313
0.000000	2611.392822	76171.335938
0.000000	2612.711426	76071.171875
0.000000	2614.030029	76725.578125
0.000000	2615.348633	76417.609375
0.000000	2616.667236	76170.343750
0.000000	2617.985840	76497.414063
0.000000	2619.304443	76248.398438
0.000000	2620.623047	75907.562500
0.000000	2621.941650	76310.164063
0.000000	2623.260254	76312.937500
0.000000	2624.578857	75899.710938
0.000000	2625.897461	76034.046875
0.000000	2627.216064	76282.851563
0.000000	2628.534668	76715.992188
0.000000	2629.853271	76381.117188
0.000000	2631.171875	76561.820313
0.000000	2632.490479	76468.179688
0.000000	2633.809082	76285.632813
0.000000	2635.127686	75891.210938
0.000000	2636.446289	75870.242188
0.000000	2637.764893	76408.515625
0.000000	2639.083496	76251.875000
0.000000	2640.402100	75700.562500
0.000000	2641.720703	75874.625000
0.000000	2643.039307	75610.468750
0.000000	2644.357910	75639.523438
0.000000	2645.676514	75965.203125
0.000000	2646.995117	75714.187500
0.000000	2648.313721	75934.148438
0.000000	2649.632324	75470.734375
0.000000	2650.950928	75698.914063
0.000000	2652.269531	75088.226563
0.000000	2653.588135	75601.203125
0.000000	2654.906738	75829.890625
0.000000	2656.225342	75358.296875
0.000000	2657.543945	75546.046875
0.000000	2658.862549	75874.898438
0.000000	2660.181152	75121.554688
0.000000	2661.499756	75075.828125
0.000000	2662.818359	75445.039063
0.000000	2664.136963	75394.296875
0.000000	2665.455566	75502.023438
0.000000	2666.774170	75285.375000
0.000000	2668.092773	75169.992188
0.000000	2669.411377	75335.937500
0.000000	2670.729980	75520.835938
0.000000	2672.048584	75453.437500
0.000000	2673.367188	75229.429688
0.000000	2674.685791	75382.531250
0.000000	2676.004395	75311.648438
0.000000	2677.322998	75504.523438
0.000000	2678.641602	75286.875000
0.000000	2679.960205	74730.953125
0.000000	2681.278809	74982.328125
0.000000	2682.597412	75088.468750
0.000000	2683.916016	74782.804688
0.000000	2685.234619	74782.312500
0.000000	2686.553223	75032.820313
0.000000	2687.871826	75155.867188
0.000000	2689.190430	74693.367188
0.000000	2690.509033	74685.656250
0.000000	2691.827637	74730.718750
0.000000	2693.146240	74688.039063
0.000000	2694.464844	74620.835938
0.000000	2695.783447	74843.554688
0.000000	2697.102051	74383.820313
0.000000	2698.420654	74478.804688
0.000000	2699.739258	74486.875000
0.000000	2701.057861	74325.898438
0.000000	2702.376465	74612.640625
0.000000	2703.695068	74333.914063
0.000000	2705.013672	74093.375000
0.000000	2706.332275	74257.531250
0.000000	2707.650879	74401.171875
0.000000	2708.969482	74096.523438
0.000000	2710.288086	74535.085938
0.000000	2711.606689	73966.367188
0.000000	2712.925293	74358.398438
0.000000	2714.243896	74256.781250
0.000000	2715.562500	73999.429688
0.000000	2716.881104	74100.648438
0.000000	2718.199707	73986.453125
0.000000	2719.518311	73940.781250
0.000000	2720.836914	73707.968750
0.000000	2722.155518	73517.554688
0.000000	2723.474121	73971.054688
0.000000	2724.792725	73826.242188
0.000000	2726.111328	73603.812500
0.000000	2727.429932	73826.648438
0.000000	2728.748535	73507.671875
0.000000	2730.067139	73493.671875
0.000000	2731.385742	73228.859375
0.000000	2732.704346	73491.218750
0.000000	2734.022949	73426.828125
0.000000	2735.341553	72954.414063
0.000000	2736.660156	73039.242188
0.000000	2737.978760	72969.734375
0.000000	2739.297363	73028.375000
0.000000	2740.615967	73000.335938
0.000000	2741.934570	73103.968750
0.000000	2743.253174	72881.671875
0.000000	2744.571777	73342.335938
0.000000	2745.890381	72672.476563
0.000000	2747.208984	73066.695313
0.000000	2748.527588	72945.437500
0.000000	2749.846191	72849.304688
0.000000	2751.164795	72901.289063
0.000000	2752.483398	73219.539063
0.000000	2753.802002	72428.992188
0.000000	2755.120605	72639.375000
0.000000	2756.439209	72430.601563
0.000000	2757.757813	72535.242188
0.000000	2759.076416	72367.218750
0.000000	2760.395020	72415.179688
0.000000	2761.713623	72096.460938
0.000000	2763.032227	71741.914063
0.000000	2764.350830	72561.187500
0.000000	2765.669434	72167.562500
0.000000	2766.988037	72303.343750
0.000000	2768.306641	71894.500000
0.000000	2769.625244	71693.578125
0.000000	2770.943848	71921.343750
0.000000	2772.262451	71900.421875
0.000000	2773.581055	71585.617188
0.000000	2774.899658	71629.968750
0.000000	2776.218262	71754.617188
0.000000	2777.536865	71914.734375
0.000000	2778.855469	71887.757813
0.000000	2780.174072	71563.414063
0.000000	2781.492676	71715.718750
0.000000	2782.811279	71815.093750
0.000000	2784.129883	71309.914063
0.000000	2785.448486	71396.062500
0.000000	2786.767090	71275.953125
0.000000	2788.085693	71045.843750
0.000000	2789.404297	71004.007813
0.000000	2790.722900	71081.179688
0.000000	2792.041504	71267.992188
0.000000	2793.360107	71037.687500
0.000000	2794.678711	70779.820313
0.000000	2795.997314	71067.789063
0.000000	2797.315918	70901.578125
0.000000	2798.634521	70658.656250
0.000000	2799.953125	70707.914063
0.000000	2801.271729	70710.187500
0.000000	2802.590332	70598.421875
0.000000	2803.908936	70136.703125
0.000000	2805.227539	70684.445313
0.000000	2806.546143	69697.804688
0.000000	2807.864746	69832.117188
0.000000	2809.183350	70041.898438
0.000000	2810.501953	69818.109375
0.000000	2811.820557	69979.796875
0.000000	2813.139160	70169.984375
0.000000	2814.457764	70095.312500
0.000000	2815.776367	69804.421875
0.000000	2817.094971	69594.109375
0.000000	2818.413574	69715.007813
0.000000	2819.732178	69751.218750
0.000000	2821.050781	70170.312500
0.000000	2822.369385	70019.578125
0.000000	2823.687988	69107.976563
0.000000	2825.006592	69249.945313
0.000000	2826.325195	69668.585938
0.000000	2827.643799	69703.578125
0.000000	2828.962402	69693.656250
0.000000	2830.281006	69569.187500
0.000000	2831.599609	69417.414063
0.000000	2832.918213	69419.554688
0.000000	2834.236816	68932.507813
0.000000	2835.555420	69461.812500
0.000000	2836.874023	69084.687500
0.000000	2838.192627	69025.265625
0.000000	2839.511230	69362.914063
0.000000	2840.829834	68923.843750
0.000000	2842.148438	69359.710938
0.000000	2843.467041	69614.835938
0.000000	2844.785645	69105.523438
0.000000	2846.104248	68951.132813
0.000000	2847.422852	69009.664063
0.000000	2848.741455	68822.179688
0.000000	2850.060059	68896.781250
0.000000	2851.378662	68702.734375
0.000000	2852.697266	69058.132813
0.000000	2854.015869	68913.554688
0.000000	2855.334473	68879.617188
0.000000	2856.653076	68839.046875
0.000000	2857.971680	68752.593750
0.000000	2859.290283	68650.851563
0.000000	2860.608887	68614.453125
0.000000	2861.927490	68142.460938
0.000000	2863.246094	68437.250000
0.000000	2864.564697	68702.640625
0.000000	2865.883301	68397.531250
0.000000	2867.201904	68392.250000
0.000000	2868.520508	68428.390625
0.000000	2869.839111	68229.453125
0.000000	2871.157715	68021.156250
0.000000	2872.476318	68150.000000
0.000000	2873.794922	67797.023438
0.000000	2875.113525	68204.742188
0.000000	2876.432129	68213.015625
0.000000	2877.750732	68071.710938
0.000000	2879.069336	67983.265625
0.000000	2880.387939	68407.031250
0.000000	2881.706543	67950.039063
0.000000	2883.025146	68187.515625
0.000000	2884.343750	67757.554688
0.000000	2885.662354	67781.312500
0.000000	2886.980957	67588.406250
0.000000	2888.299561	68131.828125
0.000000	2889.618164	67886.656250
0.000000	2890.936768	67818.578125
0.000000	2892.255371	67707.273438
0.000000	2893.573975	67621.429688
0.000000	2894.892578	67864.203125
0.000000	2896.211182	67767.062500
0.000000	2897.529785	67426.289063
0.000000	2898.848389	67364.671875
0.000000	2900.166992	67993.851563
0.000000	2901.485596	67456.710938
0.000000	2902.804199	67185.656250
0.000000	2904.122803	67055.296875
0.000000	2905.441406	67370.000000
0.000000	2906.760010	67012.406250
0.000000	2908.078613	67169.031250
0.000000	2909.397217	67173.929688
0.000000	2910.715820	67003.468750
0.000000	2912.034424	67066.531250
0.000000	2913.353027	66953.070313
0.000000	2914.671631	66875.757813
0.000000	2915.990234	66761.125000
0.000000	2917.308838	66680.234375
0.000000	2918.627441	66469.734375
0.000000	2919.946045	66584.054688
0.000000	2921.264648	66946.453125
0.000000	2922.583252	66976.906250
0.000000	2923.901855	66635.015625
0.000000	2925.220459	66023.562500
0.000000	2926.539063	66831.085938
0.000000	2927.857666	66695.929688
0.000000	2929.176270	66398.046875
0.000000	2930.494873	66247.132813
0.000000	2931.813477	66447.593750
0.000000	2933.132080	66577.242188
0.000000	2934.450684	66439.898438
0.000000	2935.769287	66214.921875
0.000000	2937.087891	66397.968750
0.000000	2938.406494	66298.625000
0.000000	2939.725098	66458.101563
0.000000	2941.043701	66685.023438
0.000000	2942.362305	66572.398438
0.000000	2943.680908	67143.632813
0.000000	2944.999512	66645.562500
0.000000	2946.318115	66308.320313
0.000000	2947.636719	66217.851563
0.000000	2948.955322	66367.914063
0.000000	2950.273926	66298.992188
0.000000	2951.592529	66692.765625
0.000000	2952.911133	66237.234375
0.000000	2954.229736	66163.234375
0.000000	2955.548340	66259.734375
0.000000	2956.866943	66267.476563
0.000000	2958.185547	65953.382813
0.000000	2959.504150	65907.890625
0.000000	2960.822754	65911.546875
0.000000	2962.141357	66178.460938
0.000000	2963.459961	66150.304688
0.000000	2964.778564	65939.210938
0.000000	2966.097168	65806.265625
0.000000	2967.415771	65226.796875
0.000000	2968.734375	65255.972656
0.000000	2970.052979	65739.804688
0.000000	2971.371582	65563.242188
0.000000	2972.690186	65310.375000
0.000000	2974.008789	65346.789063
0.000000	2975.327393	65460.167969
0.000000	2976.645996	65700.257813
0.000000	2977.964600	65597.835938
0.000000	2979.283203	65553.281250
0.000000	2980.601807	65515.328125
0.000000	2981.920410	65655.445313
0.000000	2983.239014	65417.179688
0.000000	2984.557617	65581.664063
0.000000	2985.876221	65623.164063
0.000000	2987.194824	65647.093750
0.000000	2988.513428	65302.316406
0.000000	2989.832031	65247.175781
0.000000	2991.150635	65338.593750
0.000000	2992.469238	65105.875000
0.000000	2993.787842	65141.328125
0.000000	2995.106445	65125.214844
0.000000	2996.425049	65342.898438
0.000000	2997.743652	65483.449219
0.000000	2999.062256	64736.710938
0.000000	3000.380859	64568.445313
