#DatasetIndex		#Wave		#Intensity
0.000000	699.292969	11845.297852
0.000000	700.611694	11806.026367
0.000000	701.930420	11683.746094
0.000000	703.249146	11709.065430
0.000000	704.567871	11745.079102
0.000000	705.886597	11780.618164
0.000000	707.205322	11893.312500
0.000000	708.524048	11825.121094
0.000000	709.842773	11760.923828
0.000000	711.161499	11861.054688
0.000000	712.480225	11977.876953
0.000000	713.798950	11923.104492
0.000000	715.117676	11863.013672
0.000000	716.436401	12018.766602
0.000000	717.755127	12155.150391
0.000000	719.073853	12048.573242
0.000000	720.392578	12061.614258
0.000000	721.711304	12208.017578
0.000000	723.030029	12252.859375
0.000000	724.348755	12168.675781
0.000000	725.667480	12087.063477
0.000000	726.986206	12111.711914
0.000000	728.304932	12113.639648
0.000000	729.623657	12330.895508
0.000000	730.942383	12285.207031
0.000000	732.261108	12259.993164
0.000000	733.579834	12233.480469
0.000000	734.898560	12188.877930
0.000000	736.217285	12263.781250
0.000000	737.536011	12449.806641
0.000000	738.854736	12361.269531
0.000000	740.173462	12325.066406
0.000000	741.492188	12360.806641
0.000000	742.810913	12413.141602
0.000000	744.129639	12432.154297
0.000000	745.448364	12411.954102
0.000000	746.767090	12388.470703
0.000000	748.085815	12366.340820
0.000000	749.404541	12282.648438
0.000000	750.723267	12360.032227
0.000000	752.041992	12406.598633
0.000000	753.360718	12412.196289
0.000000	754.679443	12396.951172
0.000000	755.998169	12305.082031
0.000000	757.316895	12487.530273
0.000000	758.635620	12498.864258
0.000000	759.954346	12570.292969
0.000000	761.273071	12482.583008
0.000000	762.591797	12434.839844
0.000000	763.910522	12475.004883
0.000000	765.229248	12439.818359
0.000000	766.547974	12376.562500
0.000000	767.866699	12542.391602
0.000000	769.185425	12652.288086
0.000000	770.504150	12568.221680
0.000000	771.822876	12513.963867
0.000000	773.141602	12512.247070
0.000000	774.460327	12511.488281
0.000000	775.779053	12537.972656
0.000000	777.097778	12434.151367
0.000000	778.416504	12652.725586
0.000000	779.735229	12697.663086
0.000000	781.053955	12737.348633
0.000000	782.372681	12729.903320
0.000000	783.691406	12734.757813
0.000000	785.010132	12796.468750
0.000000	786.328857	12679.874023
0.000000	787.647583	12837.978516
0.000000	788.966309	12660.389648
0.000000	790.285034	12705.987305
0.000000	791.603760	12765.790039
0.000000	792.922485	12863.970703
0.000000	794.241211	13007.327148
0.000000	795.559937	13025.133789
0.000000	796.878662	12836.709961
0.000000	798.197388	13115.835938
0.000000	799.516113	13059.426758
0.000000	800.834839	13019.882813
0.000000	802.153564	13015.520508
0.000000	803.472290	13060.465820
0.000000	804.791016	13161.904297
0.000000	806.109741	13241.329102
0.000000	807.428467	13149.791992
0.000000	808.747192	13262.867188
0.000000	810.065918	13251.897461
0.000000	811.384644	13306.225586
0.000000	812.703369	13253.871094
0.000000	814.022095	13180.068359
0.000000	815.340820	13235.852539
0.000000	816.659546	13240.550781
0.000000	817.978271	13428.784180
0.000000	819.296997	13485.788086
0.000000	820.615723	13372.910156
0.000000	821.934448	13370.142578
0.000000	823.253174	13444.634766
0.000000	824.571899	13427.025391
0.000000	825.890625	13270.971680
0.000000	827.209351	13205.623047
0.000000	828.528076	13408.797852
0.000000	829.846802	13504.545898
0.000000	831.165527	13456.521484
0.000000	832.484253	13409.058594
0.000000	833.802979	13482.250977
0.000000	835.121704	13549.073242
0.000000	836.440430	13461.703125
0.000000	837.759155	13472.220703
0.000000	839.077881	13407.670898
0.000000	840.396606	13460.810547
0.000000	841.715332	13519.024414
0.000000	843.034058	13522.804688
0.000000	844.352783	13514.970703
0.000000	845.671509	13525.449219
0.000000	846.990234	13525.983398
0.000000	848.308960	13496.171875
0.000000	849.627686	13604.475586
0.000000	850.946411	13601.234375
0.000000	852.265137	13624.997070
0.000000	853.583862	13559.849609
0.000000	854.902588	13480.644531
0.000000	856.221313	13468.974609
0.000000	857.540039	13520.455078
0.000000	858.858765	13601.957031
0.000000	860.177490	13644.957031
0.000000	861.496216	13681.103516
0.000000	862.814941	13600.032227
0.000000	864.133667	13776.445313
0.000000	865.452393	13855.132813
0.000000	866.771118	13771.661133
0.000000	868.089844	13813.387695
0.000000	869.408569	13956.121094
0.000000	870.727295	13785.911133
0.000000	872.046021	13817.475586
0.000000	873.364746	13942.512695
0.000000	874.683472	13919.515625
0.000000	876.002197	13888.065430
0.000000	877.320923	13923.164063
0.000000	878.639648	13954.535156
0.000000	879.958374	13924.552734
0.000000	881.277100	13912.810547
0.000000	882.595825	14022.033203
0.000000	883.914551	14077.903320
0.000000	885.233276	14036.553711
0.000000	886.552002	13994.808594
0.000000	887.870728	14049.020508
0.000000	889.189453	14183.127930
0.000000	890.508179	14274.265625
0.000000	891.826904	14251.620117
0.000000	893.145630	14343.541992
0.000000	894.464355	14243.480469
0.000000	895.783081	14175.563477
0.000000	897.101807	14238.268555
0.000000	898.420532	14319.304688
0.000000	899.739258	14329.156250
0.000000	901.057983	14318.078125
0.000000	902.376709	14361.780273
0.000000	903.695435	14227.094727
0.000000	905.014160	14402.210938
0.000000	906.332886	14446.965820
0.000000	907.651611	14448.532227
0.000000	908.970337	14394.939453
0.000000	910.289063	14394.511719
0.000000	911.607788	14494.708984
0.000000	912.926514	14563.277344
0.000000	914.245239	14671.340820
0.000000	915.563965	14678.137695
0.000000	916.882690	14362.348633
0.000000	918.201416	14539.013672
0.000000	919.520142	14728.170898
0.000000	920.838867	14747.460938
0.000000	922.157593	14671.796875
0.000000	923.476318	14592.296875
0.000000	924.795044	14552.373047
0.000000	926.113770	14505.847656
0.000000	927.432495	14665.365234
0.000000	928.751221	14579.069336
0.000000	930.069946	14634.113281
0.000000	931.388672	14693.793945
0.000000	932.707397	14709.119141
0.000000	934.026123	14731.238281
0.000000	935.344849	14761.439453
0.000000	936.663574	14808.624023
0.000000	937.982300	14858.539063
0.000000	939.301025	14858.391602
0.000000	940.619751	14802.059570
0.000000	941.938477	14906.500000
0.000000	943.257202	14893.185547
0.000000	944.575928	14763.089844
0.000000	945.894653	14752.830078
0.000000	947.213379	14853.633789
0.000000	948.532104	14849.417969
0.000000	949.850830	14868.223633
0.000000	951.169556	14864.027344
0.000000	952.488281	14894.673828
0.000000	953.807007	14882.372070
0.000000	955.125732	14976.218750
0.000000	956.444458	15098.262695
0.000000	957.763184	15106.187500
0.000000	959.081909	15151.079102
0.000000	960.400635	14973.766602
0.000000	961.719360	15106.113281
0.000000	963.038086	15200.023438
0.000000	964.356812	15306.409180
0.000000	965.675537	15175.095703
0.000000	966.994263	15106.625977
0.000000	968.312988	15186.629883
0.000000	969.631714	15199.416016
0.000000	970.950439	15229.065430
0.000000	972.269165	15414.530273
0.000000	973.587891	15277.572266
0.000000	974.906616	15356.459961
0.000000	976.225342	15465.886719
0.000000	977.544067	15454.414063
0.000000	978.862793	15387.556641
0.000000	980.181519	15400.669922
0.000000	981.500244	15465.246094
0.000000	982.818970	15416.487305
0.000000	984.137695	15556.994141
0.000000	985.456421	15481.324219
0.000000	986.775146	15694.731445
0.000000	988.093872	15624.787109
0.000000	989.412598	15588.091797
0.000000	990.731323	15556.205078
0.000000	992.050049	15594.840820
0.000000	993.368774	15748.579102
0.000000	994.687500	15705.507813
0.000000	996.006226	15514.841797
0.000000	997.324951	15821.945313
0.000000	998.643677	15691.481445
0.000000	999.962402	15716.759766
0.000000	1001.281128	15830.276367
0.000000	1002.599854	15866.413086
0.000000	1003.918579	15886.941406
0.000000	1005.237305	15951.539063
0.000000	1006.556030	15963.047852
0.000000	1007.874756	16037.698242
0.000000	1009.193481	15999.477539
0.000000	1010.512207	16122.000977
0.000000	1011.830933	16038.601563
0.000000	1013.149658	15982.679688
0.000000	1014.468384	15988.021484
0.000000	1015.787109	16043.337891
0.000000	1017.105835	16118.382813
0.000000	1018.424561	16118.319336
0.000000	1019.743286	15971.779297
0.000000	1021.062012	16073.823242
0.000000	1022.380737	16091.600586
0.000000	1023.699463	16116.155273
0.000000	1025.018188	16037.253906
0.000000	1026.336914	16094.451172
0.000000	1027.655640	16127.212891
0.000000	1028.974365	16118.545898
0.000000	1030.293091	16194.737305
0.000000	1031.611816	16279.672852
0.000000	1032.930542	16319.501953
0.000000	1034.249268	16367.777344
0.000000	1035.567993	16237.663086
0.000000	1036.886719	16152.212891
0.000000	1038.205444	16332.200195
0.000000	1039.524170	16463.753906
0.000000	1040.842896	16418.386719
0.000000	1042.161621	16358.904297
0.000000	1043.480347	16389.441406
0.000000	1044.799072	16354.388672
0.000000	1046.117798	16389.941406
0.000000	1047.436523	16601.851563
0.000000	1048.755249	16655.687500
0.000000	1050.073975	16448.949219
0.000000	1051.392700	16539.314453
0.000000	1052.711426	16607.759766
0.000000	1054.030151	16518.886719
0.000000	1055.348877	16494.414063
0.000000	1056.667603	16572.564453
0.000000	1057.986328	16486.480469
0.000000	1059.305054	16687.335938
0.000000	1060.623779	16590.488281
0.000000	1061.942505	16622.503906
0.000000	1063.261230	16700.833984
0.000000	1064.579956	16749.830078
0.000000	1065.898682	16783.572266
0.000000	1067.217407	16726.982422
0.000000	1068.536133	16676.488281
0.000000	1069.854858	16806.001953
0.000000	1071.173584	16748.515625
0.000000	1072.492310	16920.117188
0.000000	1073.811035	16990.476563
0.000000	1075.129761	16937.755859
0.000000	1076.448486	16900.964844
0.000000	1077.767212	16973.792969
0.000000	1079.085938	16967.595703
0.000000	1080.404663	16963.828125
0.000000	1081.723389	17086.683594
0.000000	1083.042114	17168.326172
0.000000	1084.360840	17142.589844
0.000000	1085.679565	17267.695313
0.000000	1086.998291	17307.496094
0.000000	1088.317017	17422.343750
0.000000	1089.635742	17362.123047
0.000000	1090.954468	17372.085938
0.000000	1092.273193	17315.005859
0.000000	1093.591919	17295.742188
0.000000	1094.910645	17423.791016
0.000000	1096.229370	17480.273438
0.000000	1097.548096	17344.015625
0.000000	1098.866821	17383.472656
0.000000	1100.185547	17449.675781
0.000000	1101.504272	17346.251953
0.000000	1102.822998	17452.664063
0.000000	1104.141724	17642.625000
0.000000	1105.460449	17696.003906
0.000000	1106.779175	17687.443359
0.000000	1108.097900	17755.892578
0.000000	1109.416626	17797.800781
0.000000	1110.735352	17638.429688
0.000000	1112.054077	17590.513672
0.000000	1113.372803	17692.728516
0.000000	1114.691528	17584.949219
0.000000	1116.010254	17509.128906
0.000000	1117.328979	17563.509766
0.000000	1118.647705	17654.423828
0.000000	1119.966431	17711.617188
0.000000	1121.285156	17726.437500
0.000000	1122.603882	17722.101563
0.000000	1123.922607	17673.119141
0.000000	1125.241333	17543.683594
0.000000	1126.560059	17807.451172
0.000000	1127.878784	17829.050781
0.000000	1129.197510	17768.085938
0.000000	1130.516235	17867.035156
0.000000	1131.834961	17876.818359
0.000000	1133.153687	17933.140625
0.000000	1134.472412	17991.828125
0.000000	1135.791138	17944.261719
0.000000	1137.109863	17856.964844
0.000000	1138.428589	17862.687500
0.000000	1139.747314	17896.583984
0.000000	1141.066040	17842.166016
0.000000	1142.384766	18026.279297
0.000000	1143.703491	18129.861328
0.000000	1145.022217	18056.306641
0.000000	1146.340942	18047.707031
0.000000	1147.659668	18142.099609
0.000000	1148.978394	18157.666016
0.000000	1150.297119	18083.787109
0.000000	1151.615845	18103.107422
0.000000	1152.934570	18168.316406
0.000000	1154.253296	17951.539063
0.000000	1155.572021	17993.849609
0.000000	1156.890747	18127.033203
0.000000	1158.209473	18316.957031
0.000000	1159.528198	18157.039063
0.000000	1160.846924	18220.433594
0.000000	1162.165649	18410.542969
0.000000	1163.484375	18470.591797
0.000000	1164.803101	18338.621094
0.000000	1166.121826	18240.863281
0.000000	1167.440552	18460.537109
0.000000	1168.759277	18722.285156
0.000000	1170.078003	18604.947266
0.000000	1171.396729	18623.744141
0.000000	1172.715454	18620.837891
0.000000	1174.034180	18691.173828
0.000000	1175.352905	18640.570313
0.000000	1176.671631	18594.509766
0.000000	1177.990356	18583.480469
0.000000	1179.309082	18610.285156
0.000000	1180.627808	18701.460938
0.000000	1181.946533	18774.703125
0.000000	1183.265259	18705.197266
0.000000	1184.583984	18750.492188
0.000000	1185.902710	19053.984375
0.000000	1187.221436	18876.978516
0.000000	1188.540161	19059.988281
0.000000	1189.858887	18918.767578
0.000000	1191.177612	19143.044922
0.000000	1192.496338	19210.740234
0.000000	1193.815063	18961.541016
0.000000	1195.133789	18876.277344
0.000000	1196.452515	19066.857422
0.000000	1197.771240	19140.960938
0.000000	1199.089966	19040.236328
0.000000	1200.408691	19147.169922
0.000000	1201.727417	19183.587891
0.000000	1203.046143	19266.664063
0.000000	1204.364868	19278.031250
0.000000	1205.683594	19313.968750
0.000000	1207.002319	19320.082031
0.000000	1208.321045	19361.839844
0.000000	1209.639771	19362.316406
0.000000	1210.958496	19226.078125
0.000000	1212.277222	19160.781250
0.000000	1213.595947	19377.310547
0.000000	1214.914673	19425.111328
0.000000	1216.233398	19374.207031
0.000000	1217.552124	19504.031250
0.000000	1218.870850	19468.933594
0.000000	1220.189575	19548.679688
0.000000	1221.508301	19707.119141
0.000000	1222.827026	19650.052734
0.000000	1224.145752	19600.759766
0.000000	1225.464478	19603.388672
0.000000	1226.783203	19605.869141
0.000000	1228.101929	19751.142578
0.000000	1229.420654	19800.064453
0.000000	1230.739380	19522.406250
0.000000	1232.058105	19711.228516
0.000000	1233.376831	19568.960938
0.000000	1234.695557	19706.181641
0.000000	1236.014282	19882.623047
0.000000	1237.333008	19758.509766
0.000000	1238.651733	19611.732422
0.000000	1239.970459	19696.849609
0.000000	1241.289185	19782.044922
0.000000	1242.607910	19816.287109
0.000000	1243.926636	19947.324219
0.000000	1245.245361	19876.626953
0.000000	1246.564087	19778.810547
0.000000	1247.882813	19797.496094
0.000000	1249.201538	19884.201172
0.000000	1250.520264	19824.703125
0.000000	1251.838989	20041.009766
0.000000	1253.157715	20045.183594
0.000000	1254.476440	20008.896484
0.000000	1255.795166	20007.500000
0.000000	1257.113892	20010.519531
0.000000	1258.432617	20044.039063
0.000000	1259.751343	20112.734375
0.000000	1261.070068	20124.923828
0.000000	1262.388794	20052.052734
0.000000	1263.707520	19987.320313
0.000000	1265.026245	20254.556641
0.000000	1266.344971	20219.212891
0.000000	1267.663696	20192.773438
0.000000	1268.982422	20141.425781
0.000000	1270.301147	20086.289063
0.000000	1271.619873	20250.869141
0.000000	1272.938599	20429.257813
0.000000	1274.257324	20411.019531
0.000000	1275.576050	20365.707031
0.000000	1276.894775	20432.962891
0.000000	1278.213501	20455.867188
0.000000	1279.532227	20512.896484
0.000000	1280.850952	20547.613281
0.000000	1282.169678	20336.591797
0.000000	1283.488403	20654.296875
0.000000	1284.807129	20524.970703
0.000000	1286.125854	20533.974609
0.000000	1287.444580	20565.177734
0.000000	1288.763306	20658.722656
0.000000	1290.082031	20614.783203
0.000000	1291.400757	20670.373047
0.000000	1292.719482	20892.046875
0.000000	1294.038208	20934.166016
0.000000	1295.356934	20828.912109
0.000000	1296.675659	20946.306641
0.000000	1297.994385	20930.636719
0.000000	1299.313110	20840.564453
0.000000	1300.631836	21174.093750
0.000000	1301.950562	21003.175781
0.000000	1303.269287	21101.611328
0.000000	1304.588013	21154.457031
0.000000	1305.906738	21206.087891
0.000000	1307.225464	21305.816406
0.000000	1308.544189	21249.283203
0.000000	1309.862915	21164.753906
0.000000	1311.181641	21158.066406
0.000000	1312.500366	21148.246094
0.000000	1313.819092	21266.345703
0.000000	1315.137817	21344.466797
0.000000	1316.456543	21569.550781
0.000000	1317.775269	21423.851563
0.000000	1319.093994	21401.263672
0.000000	1320.412720	21399.986328
0.000000	1321.731445	21379.347656
0.000000	1323.050171	21447.800781
0.000000	1324.368896	21647.089844
0.000000	1325.687622	21773.970703
0.000000	1327.006348	21686.587891
0.000000	1328.325073	21520.841797
0.000000	1329.643799	21588.644531
0.000000	1330.962524	21813.972656
0.000000	1332.281250	21810.083984
0.000000	1333.599976	21916.982422
0.000000	1334.918701	21781.544922
0.000000	1336.237427	21885.796875
0.000000	1337.556152	21841.867188
0.000000	1338.874878	21901.613281
0.000000	1340.193604	21949.089844
0.000000	1341.512329	21923.398438
0.000000	1342.831055	22018.970703
0.000000	1344.149780	22166.822266
0.000000	1345.468506	22084.037109
0.000000	1346.787231	22011.451172
0.000000	1348.105957	22002.628906
0.000000	1349.424683	21932.359375
0.000000	1350.743408	22069.531250
0.000000	1352.062134	22167.433594
0.000000	1353.380859	21963.460938
0.000000	1354.699585	22168.074219
0.000000	1356.018311	21827.199219
0.000000	1357.337036	22002.435547
0.000000	1358.655762	22077.042969
0.000000	1359.974487	22168.283203
0.000000	1361.293213	22212.166016
0.000000	1362.611938	22128.478516
0.000000	1363.930664	22010.265625
0.000000	1365.249390	22088.578125
0.000000	1366.568115	22239.986328
0.000000	1367.886841	22447.750000
0.000000	1369.205566	22594.902344
0.000000	1370.524292	22374.582031
0.000000	1371.843018	22418.341797
0.000000	1373.161743	22290.171875
0.000000	1374.480469	22291.988281
0.000000	1375.799194	22265.875000
0.000000	1377.117920	22490.298828
0.000000	1378.436646	22440.164063
0.000000	1379.755371	22557.761719
0.000000	1381.074097	22475.183594
0.000000	1382.392822	22671.619141
0.000000	1383.711548	22755.626953
0.000000	1385.030273	22713.029297
0.000000	1386.348999	22674.423828
0.000000	1387.667725	22655.660156
0.000000	1388.986450	22727.173828
0.000000	1390.305176	22884.541016
0.000000	1391.623901	22952.001953
0.000000	1392.942627	22925.033203
0.000000	1394.261353	23066.292969
0.000000	1395.580078	22996.332031
0.000000	1396.898804	23035.121094
0.000000	1398.217529	22992.986328
0.000000	1399.536255	23259.402344
0.000000	1400.854980	23419.910156
0.000000	1402.173706	23140.320313
0.000000	1403.492432	23356.580078
0.000000	1404.811157	23307.392578
0.000000	1406.129883	23368.128906
0.000000	1407.448608	23474.876953
0.000000	1408.767334	23414.480469
0.000000	1410.086060	23493.839844
0.000000	1411.404785	23570.316406
0.000000	1412.723511	23464.726563
0.000000	1414.042236	23390.128906
0.000000	1415.360962	23547.613281
0.000000	1416.679688	23521.923828
0.000000	1417.998413	23532.550781
0.000000	1419.317139	23666.234375
0.000000	1420.635864	23758.904297
0.000000	1421.954590	23873.039063
0.000000	1423.273315	23995.085938
0.000000	1424.592041	23762.392578
0.000000	1425.910767	23974.656250
0.000000	1427.229492	23998.347656
0.000000	1428.548218	23886.423828
0.000000	1429.866943	23947.265625
0.000000	1431.185669	24063.353516
0.000000	1432.504395	24084.304688
0.000000	1433.823120	24024.751953
0.000000	1435.141846	24129.978516
0.000000	1436.460571	24057.853516
0.000000	1437.779297	24245.710938
0.000000	1439.098022	24087.687500
0.000000	1440.416748	24263.599609
0.000000	1441.735474	24268.531250
0.000000	1443.054199	24237.947266
0.000000	1444.372925	24318.388672
0.000000	1445.691650	24327.404297
0.000000	1447.010376	24256.611328
0.000000	1448.329102	24266.753906
0.000000	1449.647827	24282.976563
0.000000	1450.966553	24455.130859
0.000000	1452.285278	24556.693359
0.000000	1453.604004	24462.318359
0.000000	1454.922729	24443.687500
0.000000	1456.241455	24540.134766
0.000000	1457.560181	24623.455078
0.000000	1458.878906	24676.693359
0.000000	1460.197632	24593.564453
0.000000	1461.516357	24471.007813
0.000000	1462.835083	24724.802734
0.000000	1464.153809	24776.414063
0.000000	1465.472534	24429.544922
0.000000	1466.791260	24508.167969
0.000000	1468.109985	24641.314453
0.000000	1469.428711	24646.365234
0.000000	1470.747437	24648.703125
0.000000	1472.066162	24765.744141
0.000000	1473.384888	24997.910156
0.000000	1474.703613	25009.882813
0.000000	1476.022339	24924.832031
0.000000	1477.341064	24846.539063
0.000000	1478.659790	24926.671875
0.000000	1479.978516	25095.589844
0.000000	1481.297241	24929.585938
0.000000	1482.615967	24911.144531
0.000000	1483.934692	24854.177734
0.000000	1485.253418	24782.423828
0.000000	1486.572144	25213.097656
0.000000	1487.890869	25071.386719
0.000000	1489.209595	25227.355469
0.000000	1490.528320	25227.835938
0.000000	1491.847046	25222.101563
0.000000	1493.165771	25175.896484
0.000000	1494.484497	25388.099609
0.000000	1495.803223	25313.791016
0.000000	1497.121948	25238.044922
0.000000	1498.440674	25321.656250
0.000000	1499.759399	25381.320313
0.000000	1501.078125	25538.675781
0.000000	1502.396851	25468.626953
0.000000	1503.715576	25271.138672
0.000000	1505.034302	25398.791016
0.000000	1506.353027	25511.917969
0.000000	1507.671753	25512.572266
0.000000	1508.990479	25612.017578
0.000000	1510.309204	25603.386719
0.000000	1511.627930	25669.802734
0.000000	1512.946655	25829.156250
0.000000	1514.265381	26131.888672
0.000000	1515.584106	26083.109375
0.000000	1516.902832	26120.376953
0.000000	1518.221558	26215.265625
0.000000	1519.540283	26217.140625
0.000000	1520.859009	26016.062500
0.000000	1522.177734	26067.841797
0.000000	1523.496460	26155.931641
0.000000	1524.815186	26182.832031
0.000000	1526.133911	26077.886719
0.000000	1527.452637	26126.287109
0.000000	1528.771362	26131.902344
0.000000	1530.090088	26154.484375
0.000000	1531.408813	26226.912109
0.000000	1532.727539	26221.644531
0.000000	1534.046265	26381.513672
0.000000	1535.364990	26468.572266
0.000000	1536.683716	26475.238281
0.000000	1538.002441	26451.845703
0.000000	1539.321167	26532.740234
0.000000	1540.639893	26700.080078
0.000000	1541.958618	26961.501953
0.000000	1543.277344	26626.847656
0.000000	1544.596069	26525.859375
0.000000	1545.914795	26834.464844
0.000000	1547.233521	26545.220703
0.000000	1548.552246	26542.818359
0.000000	1549.870972	26714.712891
0.000000	1551.189697	26786.031250
0.000000	1552.508423	26754.501953
0.000000	1553.827148	26770.339844
0.000000	1555.145874	26937.955078
0.000000	1556.464600	26802.494141
0.000000	1557.783325	26729.314453
0.000000	1559.102051	27028.056641
0.000000	1560.420776	27123.248047
0.000000	1561.739502	27021.898438
0.000000	1563.058228	27097.730469
0.000000	1564.376953	26947.304688
0.000000	1565.695679	26826.513672
0.000000	1567.014404	27171.585938
0.000000	1568.333130	27026.787109
0.000000	1569.651855	27115.132813
0.000000	1570.970581	27510.978516
0.000000	1572.289307	27133.314453
0.000000	1573.608032	27096.458984
0.000000	1574.926758	26977.265625
0.000000	1576.245483	27090.613281
0.000000	1577.564209	27408.380859
0.000000	1578.882935	27445.042969
0.000000	1580.201660	27180.039063
0.000000	1581.520386	27296.429688
0.000000	1582.839111	27345.996094
0.000000	1584.157837	27354.488281
0.000000	1585.476563	27459.156250
0.000000	1586.795288	27558.154297
0.000000	1588.114014	27518.837891
0.000000	1589.432739	27433.638672
0.000000	1590.751465	27373.609375
0.000000	1592.070190	27429.621094
0.000000	1593.388916	27498.406250
0.000000	1594.707642	27615.906250
0.000000	1596.026367	27843.035156
0.000000	1597.345093	27746.851563
0.000000	1598.663818	27735.773438
0.000000	1599.982544	27751.972656
0.000000	1601.301270	27841.896484
0.000000	1602.619995	27723.628906
0.000000	1603.938721	27868.796875
0.000000	1605.257446	27904.621094
0.000000	1606.576172	27912.880859
0.000000	1607.894897	27921.248047
0.000000	1609.213623	28091.308594
0.000000	1610.532349	28183.550781
0.000000	1611.851074	28245.144531
0.000000	1613.169800	28139.251953
0.000000	1614.488525	28110.486328
0.000000	1615.807251	28326.363281
0.000000	1617.125977	28456.597656
0.000000	1618.444702	28574.621094
0.000000	1619.763428	28505.658203
0.000000	1621.082153	28481.437500
0.000000	1622.400879	28522.224609
0.000000	1623.719604	28535.345703
0.000000	1625.038330	28619.474609
0.000000	1626.357056	28725.101563
0.000000	1627.675781	28744.740234
0.000000	1628.994507	28694.037109
0.000000	1630.313232	28748.861328
0.000000	1631.631958	29032.943359
0.000000	1632.950684	29176.982422
0.000000	1634.269409	29037.794922
0.000000	1635.588135	29074.890625
0.000000	1636.906860	29193.781250
0.000000	1638.225586	29379.419922
0.000000	1639.544312	29308.806641
0.000000	1640.863037	29150.072266
0.000000	1642.181763	29361.505859
0.000000	1643.500488	29365.941406
0.000000	1644.819214	29367.822266
0.000000	1646.137939	29546.740234
0.000000	1647.456665	29630.091797
0.000000	1648.775391	29432.333984
0.000000	1650.094116	29565.201172
0.000000	1651.412842	29711.994141
0.000000	1652.731567	29520.185547
0.000000	1654.050293	29497.072266
0.000000	1655.369019	29575.218750
0.000000	1656.687744	29853.810547
0.000000	1658.006470	29883.597656
0.000000	1659.325195	29814.998047
0.000000	1660.643921	29833.523438
0.000000	1661.962646	30021.576172
0.000000	1663.281372	29846.595703
0.000000	1664.600098	29840.226563
0.000000	1665.918823	29942.945313
0.000000	1667.237549	29920.468750
0.000000	1668.556274	29964.384766
0.000000	1669.875000	29936.792969
0.000000	1671.193726	29866.371094
0.000000	1672.512451	29977.648438
0.000000	1673.831177	30109.044922
0.000000	1675.149902	30156.318359
0.000000	1676.468628	30272.621094
0.000000	1677.787354	30067.908203
0.000000	1679.106079	30116.718750
0.000000	1680.424805	30445.335938
0.000000	1681.743530	30191.785156
0.000000	1683.062256	29939.390625
0.000000	1684.380981	30125.316406
0.000000	1685.699707	30324.460938
0.000000	1687.018433	30439.347656
0.000000	1688.337158	30261.832031
0.000000	1689.655884	30481.902344
0.000000	1690.974609	30293.220703
0.000000	1692.293335	30425.736328
0.000000	1693.612061	30366.326172
0.000000	1694.930786	30223.208984
0.000000	1696.249512	30201.011719
0.000000	1697.568237	30456.382813
0.000000	1698.886963	30311.144531
0.000000	1700.205688	30160.451172
0.000000	1701.524414	30367.195313
0.000000	1702.843140	30419.339844
0.000000	1704.161865	30505.810547
0.000000	1705.480591	30609.488281
0.000000	1706.799316	30718.751953
0.000000	1708.118042	30638.197266
0.000000	1709.436768	30745.984375
0.000000	1710.755493	30749.064453
0.000000	1712.074219	30607.568359
0.000000	1713.392944	30696.730469
0.000000	1714.711670	30709.757813
0.000000	1716.030396	30619.724609
0.000000	1717.349121	30703.677734
0.000000	1718.667847	30939.457031
0.000000	1719.986572	31039.949219
0.000000	1721.305298	30889.876953
0.000000	1722.624023	30808.615234
0.000000	1723.942749	30858.968750
0.000000	1725.261475	30926.244141
0.000000	1726.580200	31056.207031
0.000000	1727.898926	31192.505859
0.000000	1729.217651	31205.333984
0.000000	1730.536377	31005.230469
0.000000	1731.855103	31186.160156
0.000000	1733.173828	31269.875000
0.000000	1734.492554	31282.126953
0.000000	1735.811279	31478.396484
0.000000	1737.130005	31393.933594
0.000000	1738.448730	31300.832031
0.000000	1739.767456	31379.833984
0.000000	1741.086182	31545.085938
0.000000	1742.404907	31597.542969
0.000000	1743.723633	31567.980469
0.000000	1745.042358	31860.943359
0.000000	1746.361084	31785.138672
0.000000	1747.679810	31627.980469
0.000000	1748.998535	31573.203125
0.000000	1750.317261	31898.816406
0.000000	1751.635986	32037.255859
0.000000	1752.954712	31827.320313
0.000000	1754.273438	31805.849609
0.000000	1755.592163	31992.658203
0.000000	1756.910889	32061.269531
0.000000	1758.229614	32183.404297
0.000000	1759.548340	31949.716797
0.000000	1760.867065	32218.261719
0.000000	1762.185791	32326.052734
0.000000	1763.504517	32347.839844
0.000000	1764.823242	32012.794922
0.000000	1766.141968	32388.533203
0.000000	1767.460693	32316.935547
0.000000	1768.779419	32200.156250
0.000000	1770.098145	32355.697266
0.000000	1771.416870	32494.328125
0.000000	1772.735596	32420.150391
0.000000	1774.054321	32576.822266
0.000000	1775.373047	32699.220703
0.000000	1776.691772	32648.273438
0.000000	1778.010498	32380.818359
0.000000	1779.329224	32461.595703
0.000000	1780.647949	32568.304688
0.000000	1781.966675	32805.695313
0.000000	1783.285400	32862.394531
0.000000	1784.604126	32690.201172
0.000000	1785.922852	32771.214844
0.000000	1787.241577	32749.619141
0.000000	1788.560303	32709.966797
0.000000	1789.879028	32770.253906
0.000000	1791.197754	32751.976563
0.000000	1792.516479	32772.746094
0.000000	1793.835205	32754.351563
0.000000	1795.153931	32742.605469
0.000000	1796.472656	32762.039063
0.000000	1797.791382	32734.490234
0.000000	1799.110107	32770.417969
0.000000	1800.428833	32814.941406
0.000000	1801.747559	32811.324219
0.000000	1803.066284	32939.007813
0.000000	1804.385010	32830.429688
0.000000	1805.703735	32879.257813
0.000000	1807.022461	32692.753906
0.000000	1808.341187	32714.005859
0.000000	1809.659912	32886.074219
0.000000	1810.978638	33129.644531
0.000000	1812.297363	32966.644531
0.000000	1813.616089	33178.816406
0.000000	1814.934814	33140.183594
0.000000	1816.253540	32945.671875
0.000000	1817.572266	32901.953125
0.000000	1818.890991	33086.632813
0.000000	1820.209717	32955.925781
0.000000	1821.528442	32980.625000
0.000000	1822.847168	32877.359375
0.000000	1824.165894	32807.167969
0.000000	1825.484619	32801.121094
0.000000	1826.803345	33030.054688
0.000000	1828.122070	33438.968750
0.000000	1829.440796	33287.203125
0.000000	1830.759521	33396.914063
0.000000	1832.078247	33342.109375
0.000000	1833.396973	33445.417969
0.000000	1834.715698	33463.773438
0.000000	1836.034424	33323.648438
0.000000	1837.353149	33104.570313
0.000000	1838.671875	33310.820313
0.000000	1839.990601	33134.089844
0.000000	1841.309326	33516.320313
0.000000	1842.628052	33574.097656
0.000000	1843.946777	33578.523438
0.000000	1845.265503	33747.457031
0.000000	1846.584229	33741.664063
0.000000	1847.902954	33903.761719
0.000000	1849.221680	33926.828125
0.000000	1850.540405	33899.996094
0.000000	1851.859131	34181.582031
0.000000	1853.177856	34239.500000
0.000000	1854.496582	34007.691406
0.000000	1855.815308	33910.464844
0.000000	1857.134033	34179.921875
0.000000	1858.452759	34385.140625
0.000000	1859.771484	34402.988281
0.000000	1861.090210	34377.769531
0.000000	1862.408936	34425.222656
0.000000	1863.727661	34430.539063
0.000000	1865.046387	34212.484375
0.000000	1866.365112	34230.132813
0.000000	1867.683838	34561.929688
0.000000	1869.002563	34841.742188
0.000000	1870.321289	34582.871094
0.000000	1871.640015	34527.585938
0.000000	1872.958740	34655.546875
0.000000	1874.277466	34740.226563
0.000000	1875.596191	34750.804688
0.000000	1876.914917	34882.062500
0.000000	1878.233643	35159.609375
0.000000	1879.552368	35009.320313
0.000000	1880.871094	35010.707031
0.000000	1882.189819	35001.738281
0.000000	1883.508545	34907.050781
0.000000	1884.827271	34814.093750
0.000000	1886.145996	35129.230469
0.000000	1887.464722	35272.550781
0.000000	1888.783447	35375.253906
0.000000	1890.102173	35229.613281
0.000000	1891.420898	35382.269531
0.000000	1892.739624	35337.554688
0.000000	1894.058350	35226.734375
0.000000	1895.377075	35331.542969
0.000000	1896.695801	35353.160156
0.000000	1898.014526	35250.562500
0.000000	1899.333252	35645.445313
0.000000	1900.651978	35484.050781
0.000000	1901.970703	35361.812500
0.000000	1903.289429	35580.167969
0.000000	1904.608154	35441.546875
0.000000	1905.926880	35384.003906
0.000000	1907.245605	35514.890625
0.000000	1908.564331	35481.734375
0.000000	1909.883057	35614.945313
0.000000	1911.201782	35658.503906
0.000000	1912.520508	35740.750000
0.000000	1913.839233	35532.199219
0.000000	1915.157959	35733.867188
0.000000	1916.476685	35844.453125
0.000000	1917.795410	35942.484375
0.000000	1919.114136	35974.238281
0.000000	1920.432861	35732.695313
0.000000	1921.751587	35714.687500
0.000000	1923.070313	35803.414063
0.000000	1924.389038	35783.335938
0.000000	1925.707764	35815.285156
0.000000	1927.026489	36012.812500
0.000000	1928.345215	35915.015625
0.000000	1929.663940	35893.203125
0.000000	1930.982666	35778.285156
0.000000	1932.301392	36352.562500
0.000000	1933.620117	36003.652344
0.000000	1934.938843	35894.144531
0.000000	1936.257568	35778.019531
0.000000	1937.576294	36022.808594
0.000000	1938.895020	36131.984375
0.000000	1940.213745	36681.000000
0.000000	1941.532471	36321.632813
0.000000	1942.851196	36267.886719
0.000000	1944.169922	36275.875000
0.000000	1945.488647	36286.152344
0.000000	1946.807373	36608.125000
0.000000	1948.126099	36330.992188
0.000000	1949.444824	36793.179688
0.000000	1950.763550	36576.917969
0.000000	1952.082275	36453.734375
0.000000	1953.401001	36337.941406
0.000000	1954.719727	36417.835938
0.000000	1956.038452	36439.921875
0.000000	1957.357178	36687.433594
0.000000	1958.675903	36833.730469
0.000000	1959.994629	36919.523438
0.000000	1961.313354	36557.417969
0.000000	1962.632080	36894.976563
0.000000	1963.950806	36839.093750
0.000000	1965.269531	37294.652344
0.000000	1966.588257	36839.765625
0.000000	1967.906982	36704.125000
0.000000	1969.225708	37098.394531
0.000000	1970.544434	37059.636719
0.000000	1971.863159	36902.367188
0.000000	1973.181885	37010.855469
0.000000	1974.500610	37184.593750
0.000000	1975.819336	37324.152344
0.000000	1977.138062	37176.960938
0.000000	1978.456787	37459.414063
0.000000	1979.775513	37257.558594
0.000000	1981.094238	37503.753906
0.000000	1982.412964	37264.382813
0.000000	1983.731689	37472.148438
0.000000	1985.050415	37663.324219
0.000000	1986.369141	37560.234375
0.000000	1987.687866	37248.144531
0.000000	1989.006592	37560.156250
0.000000	1990.325317	37937.406250
0.000000	1991.644043	37980.558594
0.000000	1992.962769	37792.222656
0.000000	1994.281494	37748.640625
0.000000	1995.600220	37935.039063
0.000000	1996.918945	37991.789063
0.000000	1998.237671	37971.273438
0.000000	1999.556396	38260.667969
0.000000	2000.875122	38324.738281
0.000000	2002.193848	38309.414063
0.000000	2003.512573	38451.347656
0.000000	2004.831299	38354.980469
0.000000	2006.150024	38471.835938
0.000000	2007.468750	38581.769531
0.000000	2008.787476	38530.167969
0.000000	2010.106201	38697.746094
0.000000	2011.424927	38755.082031
0.000000	2012.743652	38838.035156
0.000000	2014.062378	38749.277344
0.000000	2015.381104	38727.242188
0.000000	2016.699829	38780.386719
0.000000	2018.018555	38801.527344
0.000000	2019.337280	38554.187500
0.000000	2020.656006	38837.371094
0.000000	2021.974731	38895.296875
0.000000	2023.293457	38817.820313
0.000000	2024.612183	39165.406250
0.000000	2025.930908	38956.851563
0.000000	2027.249634	39015.007813
0.000000	2028.568359	39147.003906
0.000000	2029.887085	39079.371094
0.000000	2031.205811	39179.996094
0.000000	2032.524536	39074.500000
0.000000	2033.843262	39109.429688
0.000000	2035.161987	39271.085938
0.000000	2036.480713	39207.417969
0.000000	2037.799438	39218.390625
0.000000	2039.118164	39376.890625
0.000000	2040.436890	39475.097656
0.000000	2041.755615	39291.546875
0.000000	2043.074341	39232.070313
0.000000	2044.393066	39628.957031
0.000000	2045.711792	39484.121094
0.000000	2047.030518	39114.636719
0.000000	2048.349121	39523.410156
0.000000	2049.667725	39342.445313
0.000000	2050.986328	39513.941406
0.000000	2052.304932	39703.128906
0.000000	2053.623535	39448.058594
0.000000	2054.942139	39496.679688
0.000000	2056.260742	39456.468750
0.000000	2057.579346	39686.062500
0.000000	2058.897949	39737.289063
0.000000	2060.216553	39769.699219
0.000000	2061.535156	39804.847656
0.000000	2062.853760	39906.980469
0.000000	2064.172363	39919.703125
0.000000	2065.490967	39797.164063
0.000000	2066.809570	39871.535156
0.000000	2068.128174	39905.679688
0.000000	2069.446777	39786.648438
0.000000	2070.765381	39865.828125
0.000000	2072.083984	39819.410156
0.000000	2073.402588	39824.941406
0.000000	2074.721191	39960.140625
0.000000	2076.039795	40128.937500
0.000000	2077.358398	40195.222656
0.000000	2078.677002	40355.101563
0.000000	2079.995605	40361.878906
0.000000	2081.314209	40230.058594
0.000000	2082.632813	40185.921875
0.000000	2083.951416	40157.046875
0.000000	2085.270020	40155.617188
0.000000	2086.588623	40490.910156
0.000000	2087.907227	40353.679688
0.000000	2089.225830	40320.078125
0.000000	2090.544434	40439.035156
0.000000	2091.863037	40605.085938
0.000000	2093.181641	40485.261719
0.000000	2094.500244	41001.820313
0.000000	2095.818848	40424.007813
0.000000	2097.137451	40844.894531
0.000000	2098.456055	40861.449219
0.000000	2099.774658	40877.480469
0.000000	2101.093262	40735.867188
0.000000	2102.411865	40661.160156
0.000000	2103.730469	40961.421875
0.000000	2105.049072	40762.046875
0.000000	2106.367676	41160.031250
0.000000	2107.686279	41354.210938
0.000000	2109.004883	41313.007813
0.000000	2110.323486	41566.851563
0.000000	2111.642090	41563.746094
0.000000	2112.960693	41489.804688
0.000000	2114.279297	41182.164063
0.000000	2115.597900	41526.335938
0.000000	2116.916504	41888.855469
0.000000	2118.235107	41853.351563
0.000000	2119.553711	41690.933594
0.000000	2120.872314	41674.097656
0.000000	2122.190918	41831.015625
0.000000	2123.509521	41771.011719
0.000000	2124.828125	41756.917969
0.000000	2126.146729	41780.953125
0.000000	2127.465332	41577.957031
0.000000	2128.783936	41843.542969
0.000000	2130.102539	41891.222656
0.000000	2131.421143	42059.070313
0.000000	2132.739746	42131.484375
0.000000	2134.058350	42100.089844
0.000000	2135.376953	42270.277344
0.000000	2136.695557	42090.785156
0.000000	2138.014160	42194.035156
0.000000	2139.332764	42219.726563
0.000000	2140.651367	42033.730469
0.000000	2141.969971	42331.750000
0.000000	2143.288574	42342.992188
0.000000	2144.607178	42507.976563
0.000000	2145.925781	42378.882813
0.000000	2147.244385	42552.164063
0.000000	2148.562988	42651.500000
0.000000	2149.881592	42597.605469
0.000000	2151.200195	42384.148438
0.000000	2152.518799	42337.984375
0.000000	2153.837402	42337.320313
0.000000	2155.156006	42500.835938
0.000000	2156.474609	42604.285156
0.000000	2157.793213	42605.750000
0.000000	2159.111816	42935.585938
0.000000	2160.430420	43049.402344
0.000000	2161.749023	42857.640625
0.000000	2163.067627	42825.972656
0.000000	2164.386230	42968.980469
0.000000	2165.704834	43154.062500
0.000000	2167.023438	42973.160156
0.000000	2168.342041	42944.046875
0.000000	2169.660645	43032.464844
0.000000	2170.979248	43168.800781
0.000000	2172.297852	42814.246094
0.000000	2173.616455	43003.003906
0.000000	2174.935059	43342.828125
0.000000	2176.253662	43371.175781
0.000000	2177.572266	43114.574219
0.000000	2178.890869	42841.914063
0.000000	2180.209473	43229.527344
0.000000	2181.528076	43189.726563
0.000000	2182.846680	43427.121094
0.000000	2184.165283	43352.433594
0.000000	2185.483887	43336.093750
0.000000	2186.802490	43356.941406
0.000000	2188.121094	43256.367188
0.000000	2189.439697	43390.546875
0.000000	2190.758301	43323.753906
0.000000	2192.076904	43409.976563
0.000000	2193.395508	43218.667969
0.000000	2194.714111	43274.878906
0.000000	2196.032715	43393.160156
0.000000	2197.351318	43599.406250
0.000000	2198.669922	43771.730469
0.000000	2199.988525	43955.531250
0.000000	2201.307129	43845.148438
0.000000	2202.625732	43636.933594
0.000000	2203.944336	43934.875000
0.000000	2205.262939	43831.433594
0.000000	2206.581543	43954.921875
0.000000	2207.900146	44094.898438
0.000000	2209.218750	43993.992188
0.000000	2210.537354	44453.480469
0.000000	2211.855957	44291.187500
0.000000	2213.174561	44489.988281
0.000000	2214.493164	44492.523438
0.000000	2215.811768	44750.214844
0.000000	2217.130371	44264.312500
0.000000	2218.448975	44636.746094
0.000000	2219.767578	44577.312500
0.000000	2221.086182	44434.996094
0.000000	2222.404785	44500.859375
0.000000	2223.723389	44440.609375
0.000000	2225.041992	44349.257813
0.000000	2226.360596	44552.785156
0.000000	2227.679199	44654.769531
0.000000	2228.997803	44743.558594
0.000000	2230.316406	44943.292969
0.000000	2231.635010	44898.496094
0.000000	2232.953613	44570.886719
0.000000	2234.272217	44616.480469
0.000000	2235.590820	44690.140625
0.000000	2236.909424	45010.476563
0.000000	2238.228027	44835.535156
0.000000	2239.546631	44772.250000
0.000000	2240.865234	44939.074219
0.000000	2242.183838	44733.027344
0.000000	2243.502441	44941.648438
0.000000	2244.821045	45220.085938
0.000000	2246.139648	45278.156250
0.000000	2247.458252	45175.875000
0.000000	2248.776855	45181.828125
0.000000	2250.095459	45407.964844
0.000000	2251.414063	45426.480469
0.000000	2252.732666	45576.308594
0.000000	2254.051270	45535.687500
0.000000	2255.369873	45318.609375
0.000000	2256.688477	45549.328125
0.000000	2258.007080	45600.617188
0.000000	2259.325684	45641.261719
0.000000	2260.644287	45772.910156
0.000000	2261.962891	45504.531250
0.000000	2263.281494	45811.597656
0.000000	2264.600098	45857.156250
0.000000	2265.918701	45747.332031
0.000000	2267.237305	45700.781250
0.000000	2268.555908	45422.304688
0.000000	2269.874512	45791.609375
0.000000	2271.193115	46089.605469
0.000000	2272.511719	45725.253906
0.000000	2273.830322	45843.792969
0.000000	2275.148926	45838.390625
0.000000	2276.467529	45779.308594
0.000000	2277.786133	45801.343750
0.000000	2279.104736	45861.156250
0.000000	2280.423340	45811.335938
0.000000	2281.741943	45927.632813
0.000000	2283.060547	46171.535156
0.000000	2284.379150	46205.996094
0.000000	2285.697754	46120.175781
0.000000	2287.016357	46271.125000
0.000000	2288.334961	46142.183594
0.000000	2289.653564	46170.101563
0.000000	2290.972168	45946.171875
0.000000	2292.290771	46351.316406
0.000000	2293.609375	46348.226563
0.000000	2294.927979	46078.667969
0.000000	2296.246582	46496.820313
0.000000	2297.565186	46459.867188
0.000000	2298.883789	46671.402344
0.000000	2300.202393	46565.085938
0.000000	2301.520996	46484.617188
0.000000	2302.839600	46637.109375
0.000000	2304.158203	46576.679688
0.000000	2305.476807	46508.925781
0.000000	2306.795410	46311.433594
0.000000	2308.114014	46558.851563
0.000000	2309.432617	46633.292969
0.000000	2310.751221	46760.503906
0.000000	2312.069824	46459.835938
0.000000	2313.388428	46778.820313
0.000000	2314.707031	46846.335938
0.000000	2316.025635	46573.808594
0.000000	2317.344238	46765.601563
0.000000	2318.662842	46637.511719
0.000000	2319.981445	46810.144531
0.000000	2321.300049	46731.292969
0.000000	2322.618652	46929.503906
0.000000	2323.937256	47174.265625
0.000000	2325.255859	47217.042969
0.000000	2326.574463	47113.585938
0.000000	2327.893066	47179.316406
0.000000	2329.211670	47162.718750
0.000000	2330.530273	47170.984375
0.000000	2331.848877	47190.515625
0.000000	2333.167480	47211.394531
0.000000	2334.486084	47505.101563
0.000000	2335.804688	47575.792969
0.000000	2337.123291	47608.316406
0.000000	2338.441895	47320.804688
0.000000	2339.760498	47398.996094
0.000000	2341.079102	47369.324219
0.000000	2342.397705	47657.054688
0.000000	2343.716309	47419.230469
0.000000	2345.034912	47565.285156
0.000000	2346.353516	47675.425781
0.000000	2347.672119	47792.128906
0.000000	2348.990723	47850.285156
0.000000	2350.309326	47980.601563
0.000000	2351.627930	48072.945313
0.000000	2352.946533	48204.035156
0.000000	2354.265137	48113.867188
0.000000	2355.583740	48247.363281
0.000000	2356.902344	48086.605469
0.000000	2358.220947	47956.761719
0.000000	2359.539551	48075.566406
0.000000	2360.858154	47994.828125
0.000000	2362.176758	48227.656250
0.000000	2363.495361	48483.761719
0.000000	2364.813965	48175.214844
0.000000	2366.132568	48155.132813
0.000000	2367.451172	48476.203125
0.000000	2368.769775	48521.382813
0.000000	2370.088379	48720.515625
0.000000	2371.406982	48507.027344
0.000000	2372.725586	48417.273438
0.000000	2374.044189	48721.800781
0.000000	2375.362793	48485.187500
0.000000	2376.681396	48529.437500
0.000000	2378.000000	48487.375000
0.000000	2379.318604	48594.835938
0.000000	2380.637207	48437.621094
0.000000	2381.955811	48840.890625
0.000000	2383.274414	48776.976563
0.000000	2384.593018	48466.597656
0.000000	2385.911621	48526.976563
0.000000	2387.230225	48889.335938
0.000000	2388.548828	48691.132813
0.000000	2389.867432	48775.437500
0.000000	2391.186035	48905.457031
0.000000	2392.504639	48834.808594
0.000000	2393.823242	48952.402344
0.000000	2395.141846	48896.878906
0.000000	2396.460449	48916.558594
0.000000	2397.779053	49232.785156
0.000000	2399.097656	49221.789063
0.000000	2400.416260	49133.539063
0.000000	2401.734863	49039.417969
0.000000	2403.053467	48948.171875
0.000000	2404.372070	49148.320313
0.000000	2405.690674	49309.054688
0.000000	2407.009277	49366.347656
0.000000	2408.327881	49261.324219
0.000000	2409.646484	49231.527344
0.000000	2410.965088	49213.773438
0.000000	2412.283691	49243.906250
0.000000	2413.602295	49260.054688
0.000000	2414.920898	48997.812500
0.000000	2416.239502	49307.644531
0.000000	2417.558105	49564.746094
0.000000	2418.876709	49717.503906
0.000000	2420.195313	49847.117188
0.000000	2421.513916	49946.152344
0.000000	2422.832520	49568.320313
0.000000	2424.151123	49774.308594
0.000000	2425.469727	49641.902344
0.000000	2426.788330	49755.406250
0.000000	2428.106934	49774.027344
0.000000	2429.425537	49821.496094
0.000000	2430.744141	49609.910156
0.000000	2432.062744	49981.957031
0.000000	2433.381348	50050.226563
0.000000	2434.699951	49682.894531
0.000000	2436.018555	49498.058594
0.000000	2437.337158	50188.464844
0.000000	2438.655762	49957.453125
0.000000	2439.974365	50177.187500
0.000000	2441.292969	50166.125000
0.000000	2442.611572	50034.656250
0.000000	2443.930176	50015.921875
0.000000	2445.248779	50154.882813
0.000000	2446.567383	50209.554688
0.000000	2447.885986	50279.542969
0.000000	2449.204590	50376.652344
0.000000	2450.523193	50174.011719
0.000000	2451.841797	50371.527344
0.000000	2453.160400	49791.746094
0.000000	2454.479004	50260.316406
0.000000	2455.797607	50389.968750
0.000000	2457.116211	50522.378906
0.000000	2458.434814	50827.425781
0.000000	2459.753418	50790.726563
0.000000	2461.072021	50835.308594
0.000000	2462.390625	50794.804688
0.000000	2463.709229	50739.289063
0.000000	2465.027832	50695.113281
0.000000	2466.346436	50809.460938
0.000000	2467.665039	50679.042969
0.000000	2468.983643	51010.410156
0.000000	2470.302246	51072.574219
0.000000	2471.620850	51110.996094
0.000000	2472.939453	51113.269531
0.000000	2474.258057	51030.855469
0.000000	2475.576660	51241.035156
0.000000	2476.895264	51131.628906
0.000000	2478.213867	51185.621094
0.000000	2479.532471	51175.078125
0.000000	2480.851074	51435.324219
0.000000	2482.169678	51196.906250
0.000000	2483.488281	51005.210938
0.000000	2484.806885	51530.035156
0.000000	2486.125488	51509.695313
0.000000	2487.444092	51630.324219
0.000000	2488.762695	51572.476563
0.000000	2490.081299	51371.457031
0.000000	2491.399902	51566.394531
0.000000	2492.718506	51528.925781
0.000000	2494.037109	51699.792969
0.000000	2495.355713	51898.250000
0.000000	2496.674316	51620.351563
0.000000	2497.992920	51660.554688
0.000000	2499.311523	52029.277344
0.000000	2500.630127	51349.390625
0.000000	2501.948730	51386.093750
0.000000	2503.267334	51534.863281
0.000000	2504.585938	51938.140625
0.000000	2505.904541	52054.855469
0.000000	2507.223145	51867.785156
0.000000	2508.541748	51738.117188
0.000000	2509.860352	51935.707031
0.000000	2511.178955	52137.546875
0.000000	2512.497559	52092.218750
0.000000	2513.816162	51881.078125
0.000000	2515.134766	51942.710938
0.000000	2516.453369	52275.542969
0.000000	2517.771973	52120.531250
0.000000	2519.090576	52156.765625
0.000000	2520.409180	52159.500000
0.000000	2521.727783	51866.839844
0.000000	2523.046387	51786.042969
0.000000	2524.364990	51771.816406
0.000000	2525.683594	52028.796875
0.000000	2527.002197	51952.085938
0.000000	2528.320801	52069.199219
0.000000	2529.639404	51935.738281
0.000000	2530.958008	51907.820313
0.000000	2532.276611	51805.843750
0.000000	2533.595215	52226.972656
0.000000	2534.913818	52050.007813
0.000000	2536.232422	52097.894531
0.000000	2537.551025	52258.199219
0.000000	2538.869629	52036.187500
0.000000	2540.188232	52222.476563
0.000000	2541.506836	51935.183594
0.000000	2542.825439	52199.671875
0.000000	2544.144043	52140.441406
0.000000	2545.462646	52140.125000
0.000000	2546.781250	52133.082031
0.000000	2548.099854	51789.601563
0.000000	2549.418457	52087.074219
0.000000	2550.737061	52077.730469
0.000000	2552.055664	52134.105469
0.000000	2553.374268	52068.078125
0.000000	2554.692871	51997.371094
0.000000	2556.011475	52336.945313
0.000000	2557.330078	51917.972656
0.000000	2558.648682	52504.808594
0.000000	2559.967285	52383.359375
0.000000	2561.285889	52003.753906
0.000000	2562.604492	51849.113281
0.000000	2563.923096	52183.562500
0.000000	2565.241699	52337.468750
0.000000	2566.560303	52368.355469
0.000000	2567.878906	52399.820313
0.000000	2569.197510	52543.335938
0.000000	2570.516113	52332.410156
0.000000	2571.834717	52453.871094
0.000000	2573.153320	52158.921875
0.000000	2574.471924	52497.390625
0.000000	2575.790527	52399.250000
0.000000	2577.109131	52753.054688
0.000000	2578.427734	52718.574219
0.000000	2579.746338	52782.050781
0.000000	2581.064941	52482.816406
0.000000	2582.383545	52325.734375
0.000000	2583.702148	52483.957031
0.000000	2585.020752	52428.667969
0.000000	2586.339355	52770.367188
0.000000	2587.657959	52590.500000
0.000000	2588.976563	52657.031250
0.000000	2590.295166	52635.464844
0.000000	2591.613770	52749.375000
0.000000	2592.932373	52820.718750
0.000000	2594.250977	52580.546875
0.000000	2595.569580	52626.460938
0.000000	2596.888184	52728.289063
0.000000	2598.206787	52686.277344
0.000000	2599.525391	52819.042969
0.000000	2600.843994	52751.882813
0.000000	2602.162598	52877.207031
0.000000	2603.481201	52664.460938
0.000000	2604.799805	52896.921875
0.000000	2606.118408	52968.500000
0.000000	2607.437012	52962.562500
0.000000	2608.755615	52878.781250
0.000000	2610.074219	52748.410156
0.000000	2611.392822	53009.796875
0.000000	2612.711426	52746.593750
0.000000	2614.030029	52745.832031
0.000000	2615.348633	53096.863281
0.000000	2616.667236	52796.171875
0.000000	2617.985840	52826.195313
0.000000	2619.304443	53255.878906
0.000000	2620.623047	53215.250000
0.000000	2621.941650	52951.597656
0.000000	2623.260254	53177.578125
0.000000	2624.578857	53291.414063
0.000000	2625.897461	52811.304688
0.000000	2627.216064	53166.296875
0.000000	2628.534668	53024.382813
0.000000	2629.853271	53119.355469
0.000000	2631.171875	53070.484375
0.000000	2632.490479	53161.734375
0.000000	2633.809082	53116.066406
0.000000	2635.127686	53037.039063
0.000000	2636.446289	53053.832031
0.000000	2637.764893	53438.558594
0.000000	2639.083496	52911.746094
0.000000	2640.402100	53323.394531
0.000000	2641.720703	53208.265625
0.000000	2643.039307	53124.328125
0.000000	2644.357910	52978.046875
0.000000	2645.676514	52950.457031
0.000000	2646.995117	52958.125000
0.000000	2648.313721	53339.238281
0.000000	2649.632324	52976.324219
0.000000	2650.950928	53199.132813
0.000000	2652.269531	52838.343750
0.000000	2653.588135	53095.871094
0.000000	2654.906738	53028.082031
0.000000	2656.225342	53018.144531
0.000000	2657.543945	53051.761719
0.000000	2658.862549	53047.414063
0.000000	2660.181152	53008.437500
0.000000	2661.499756	52876.187500
0.000000	2662.818359	53102.960938
0.000000	2664.136963	53215.882813
0.000000	2665.455566	53410.718750
0.000000	2666.774170	53127.621094
0.000000	2668.092773	53123.089844
0.000000	2669.411377	52983.785156
0.000000	2670.729980	53118.199219
0.000000	2672.048584	53041.023438
0.000000	2673.367188	52984.996094
0.000000	2674.685791	53035.640625
0.000000	2676.004395	53120.171875
0.000000	2677.322998	53550.222656
0.000000	2678.641602	52990.421875
0.000000	2679.960205	52774.886719
0.000000	2681.278809	53066.949219
0.000000	2682.597412	52929.800781
0.000000	2683.916016	52998.632813
0.000000	2685.234619	53087.183594
0.000000	2686.553223	52934.261719
0.000000	2687.871826	53205.785156
0.000000	2689.190430	52820.277344
0.000000	2690.509033	53013.296875
0.000000	2691.827637	53034.796875
0.000000	2693.146240	52810.320313
0.000000	2694.464844	52677.800781
0.000000	2695.783447	52939.914063
0.000000	2697.102051	52379.132813
0.000000	2698.420654	52891.945313
0.000000	2699.739258	52940.074219
0.000000	2701.057861	52576.746094
0.000000	2702.376465	52590.406250
0.000000	2703.695068	52703.613281
0.000000	2705.013672	52541.093750
0.000000	2706.332275	52521.058594
0.000000	2707.650879	52555.351563
0.000000	2708.969482	52795.656250
0.000000	2710.288086	52263.339844
0.000000	2711.606689	52727.484375
0.000000	2712.925293	52852.929688
0.000000	2714.243896	52536.554688
0.000000	2715.562500	52401.558594
0.000000	2716.881104	52524.437500
0.000000	2718.199707	52721.789063
0.000000	2719.518311	52649.468750
0.000000	2720.836914	52194.351563
0.000000	2722.155518	52234.335938
0.000000	2723.474121	52170.468750
0.000000	2724.792725	52391.925781
0.000000	2726.111328	52366.835938
0.000000	2727.429932	52279.734375
0.000000	2728.748535	52181.500000
0.000000	2730.067139	52022.890625
0.000000	2731.385742	52273.156250
0.000000	2732.704346	52528.031250
0.000000	2734.022949	52705.171875
0.000000	2735.341553	52263.613281
0.000000	2736.660156	52090.085938
0.000000	2737.978760	51887.898438
0.000000	2739.297363	52077.808594
0.000000	2740.615967	52271.601563
0.000000	2741.934570	51949.851563
0.000000	2743.253174	52339.800781
0.000000	2744.571777	51981.753906
0.000000	2745.890381	51851.062500
0.000000	2747.208984	52239.386719
0.000000	2748.527588	52272.343750
0.000000	2749.846191	52224.437500
0.000000	2751.164795	52274.707031
0.000000	2752.483398	52385.910156
0.000000	2753.802002	52478.480469
0.000000	2755.120605	52559.250000
0.000000	2756.439209	52208.933594
0.000000	2757.757813	51999.085938
0.000000	2759.076416	52419.898438
0.000000	2760.395020	52331.070313
0.000000	2761.713623	52427.539063
0.000000	2763.032227	52274.273438
0.000000	2764.350830	52242.691406
0.000000	2765.669434	52125.109375
0.000000	2766.988037	52376.085938
0.000000	2768.306641	52191.832031
0.000000	2769.625244	52227.988281
0.000000	2770.943848	52098.648438
0.000000	2772.262451	52156.050781
0.000000	2773.581055	52075.140625
0.000000	2774.899658	52384.042969
0.000000	2776.218262	52162.097656
0.000000	2777.536865	52300.292969
0.000000	2778.855469	52413.558594
0.000000	2780.174072	52332.554688
0.000000	2781.492676	52243.414063
0.000000	2782.811279	52357.976563
0.000000	2784.129883	51691.257813
0.000000	2785.448486	52228.546875
0.000000	2786.767090	52291.890625
0.000000	2788.085693	51968.468750
0.000000	2789.404297	52172.003906
0.000000	2790.722900	52176.875000
0.000000	2792.041504	51987.156250
0.000000	2793.360107	52242.523438
0.000000	2794.678711	51769.707031
0.000000	2795.997314	51937.441406
0.000000	2797.315918	52205.652344
0.000000	2798.634521	52113.371094
0.000000	2799.953125	52319.070313
0.000000	2801.271729	52054.554688
0.000000	2802.590332	51614.738281
0.000000	2803.908936	51789.792969
0.000000	2805.227539	51962.488281
0.000000	2806.546143	51446.285156
0.000000	2807.864746	51837.421875
0.000000	2809.183350	51782.207031
0.000000	2810.501953	52001.464844
0.000000	2811.820557	51953.316406
0.000000	2813.139160	51804.703125
0.000000	2814.457764	52108.808594
0.000000	2815.776367	51715.597656
0.000000	2817.094971	51833.929688
0.000000	2818.413574	51906.441406
0.000000	2819.732178	51815.097656
0.000000	2821.050781	51796.968750
0.000000	2822.369385	51770.464844
0.000000	2823.687988	51817.699219
0.000000	2825.006592	51703.003906
0.000000	2826.325195	51360.718750
0.000000	2827.643799	51465.007813
0.000000	2828.962402	51486.312500
0.000000	2830.281006	51697.878906
0.000000	2831.599609	51634.199219
0.000000	2832.918213	51553.925781
0.000000	2834.236816	51943.167969
0.000000	2835.555420	51232.914063
0.000000	2836.874023	51756.804688
0.000000	2838.192627	51696.757813
0.000000	2839.511230	51550.531250
0.000000	2840.829834	51181.914063
0.000000	2842.148438	51424.839844
0.000000	2843.467041	51009.414063
0.000000	2844.785645	51424.781250
0.000000	2846.104248	51405.820313
0.000000	2847.422852	51766.832031
0.000000	2848.741455	51643.281250
0.000000	2850.060059	51173.566406
0.000000	2851.378662	51037.441406
0.000000	2852.697266	51550.007813
0.000000	2854.015869	51182.546875
0.000000	2855.334473	51169.289063
0.000000	2856.653076	51235.000000
0.000000	2857.971680	51262.019531
0.000000	2859.290283	51418.746094
0.000000	2860.608887	50982.628906
0.000000	2861.927490	50873.949219
0.000000	2863.246094	50707.964844
0.000000	2864.564697	50640.589844
0.000000	2865.883301	50877.257813
0.000000	2867.201904	51051.886719
0.000000	2868.520508	50777.027344
0.000000	2869.839111	50358.765625
0.000000	2871.157715	50675.101563
0.000000	2872.476318	50404.332031
0.000000	2873.794922	50498.914063
0.000000	2875.113525	50404.945313
0.000000	2876.432129	50411.945313
0.000000	2877.750732	50327.203125
0.000000	2879.069336	50085.699219
0.000000	2880.387939	50320.792969
0.000000	2881.706543	50278.609375
0.000000	2883.025146	50389.128906
0.000000	2884.343750	50404.949219
0.000000	2885.662354	50584.832031
0.000000	2886.980957	50326.070313
0.000000	2888.299561	50409.644531
0.000000	2889.618164	50566.644531
0.000000	2890.936768	50071.316406
0.000000	2892.255371	50469.937500
0.000000	2893.573975	50369.109375
0.000000	2894.892578	50452.445313
0.000000	2896.211182	50448.906250
0.000000	2897.529785	50059.933594
0.000000	2898.848389	50094.113281
0.000000	2900.166992	50259.187500
0.000000	2901.485596	49957.039063
0.000000	2902.804199	50164.152344
0.000000	2904.122803	50012.875000
0.000000	2905.441406	49986.988281
0.000000	2906.760010	50127.753906
0.000000	2908.078613	49734.878906
0.000000	2909.397217	49601.539063
0.000000	2910.715820	49770.617188
0.000000	2912.034424	49808.640625
0.000000	2913.353027	49863.671875
0.000000	2914.671631	49929.160156
0.000000	2915.990234	49825.378906
0.000000	2917.308838	49808.136719
0.000000	2918.627441	49830.824219
0.000000	2919.946045	49457.691406
0.000000	2921.264648	49269.820313
0.000000	2922.583252	49380.945313
0.000000	2923.901855	49664.417969
0.000000	2925.220459	49425.625000
0.000000	2926.539063	49443.207031
0.000000	2927.857666	49222.402344
0.000000	2929.176270	49297.902344
0.000000	2930.494873	49475.179688
0.000000	2931.813477	49427.417969
0.000000	2933.132080	49631.769531
0.000000	2934.450684	49660.722656
0.000000	2935.769287	49926.828125
0.000000	2937.087891	49307.535156
0.000000	2938.406494	49303.281250
0.000000	2939.725098	49533.625000
0.000000	2941.043701	49641.957031
0.000000	2942.362305	49381.683594
0.000000	2943.680908	49147.906250
0.000000	2944.999512	49475.761719
0.000000	2946.318115	49438.593750
0.000000	2947.636719	49642.144531
0.000000	2948.955322	49435.843750
0.000000	2950.273926	49210.660156
0.000000	2951.592529	49405.757813
0.000000	2952.911133	49129.253906
0.000000	2954.229736	49138.613281
0.000000	2955.548340	48758.015625
0.000000	2956.866943	48753.398438
0.000000	2958.185547	49120.714844
0.000000	2959.504150	49163.125000
0.000000	2960.822754	49023.851563
0.000000	2962.141357	48778.613281
0.000000	2963.459961	48944.855469
0.000000	2964.778564	48786.660156
0.000000	2966.097168	48909.582031
0.000000	2967.415771	48640.980469
0.000000	2968.734375	48901.039063
0.000000	2970.052979	48225.222656
0.000000	2971.371582	48557.414063
0.000000	2972.690186	48587.968750
0.000000	2974.008789	48570.183594
0.000000	2975.327393	48183.078125
0.000000	2976.645996	48303.046875
0.000000	2977.964600	48212.125000
0.000000	2979.283203	48164.746094
0.000000	2980.601807	48137.394531
0.000000	2981.920410	48180.605469
0.000000	2983.239014	48280.652344
0.000000	2984.557617	48339.359375
0.000000	2985.876221	48434.308594
0.000000	2987.194824	48290.613281
0.000000	2988.513428	48064.410156
0.000000	2989.832031	48119.023438
0.000000	2991.150635	48335.289063
0.000000	2992.469238	48222.453125
0.000000	2993.787842	48098.074219
0.000000	2995.106445	48313.585938
0.000000	2996.425049	48227.929688
0.000000	2997.743652	48023.050781
0.000000	2999.062256	48239.585938
0.000000	3000.380859	48276.773438
