#DatasetIndex		#Wave		#Intensity
0.000000	699.292969	6498.280762
0.000000	700.611694	6531.941406
0.000000	701.930420	6580.572266
0.000000	703.249146	6580.060547
0.000000	704.567871	6609.103027
0.000000	705.886597	6678.416016
0.000000	707.205322	6717.324707
0.000000	708.524048	6715.890625
0.000000	709.842773	6573.558105
0.000000	711.161499	6555.354980
0.000000	712.480225	6638.750000
0.000000	713.798950	6666.171387
0.000000	715.117676	6691.951660
0.000000	716.436401	6774.488281
0.000000	717.755127	6653.051270
0.000000	719.073853	6721.751953
0.000000	720.392578	6710.281250
0.000000	721.711304	6752.035156
0.000000	723.030029	6806.090820
0.000000	724.348755	6825.005371
0.000000	725.667480	6783.652832
0.000000	726.986206	6713.158691
0.000000	728.304932	6896.449707
0.000000	729.623657	6779.992188
0.000000	730.942383	6946.459961
0.000000	732.261108	6930.834961
0.000000	733.579834	6872.968262
0.000000	734.898560	6889.355469
0.000000	736.217285	6827.572754
0.000000	737.536011	6944.767578
0.000000	738.854736	6916.172363
0.000000	740.173462	6928.073730
0.000000	741.492188	6933.036133
0.000000	742.810913	6916.334961
0.000000	744.129639	6880.468262
0.000000	745.448364	6839.047852
0.000000	746.767090	6821.527344
0.000000	748.085815	6936.036621
0.000000	749.404541	6968.677734
0.000000	750.723267	7004.187012
0.000000	752.041992	6934.288574
0.000000	753.360718	6885.931641
0.000000	754.679443	6974.736816
0.000000	755.998169	7057.100098
0.000000	757.316895	6876.316406
0.000000	758.635620	6960.644043
0.000000	759.954346	6919.037598
0.000000	761.273071	6968.386719
0.000000	762.591797	7020.427246
0.000000	763.910522	7037.594727
0.000000	765.229248	7078.761230
0.000000	766.547974	7054.234375
0.000000	767.866699	6945.646973
0.000000	769.185425	6939.038574
0.000000	770.504150	6996.277832
0.000000	771.822876	6999.310059
0.000000	773.141602	7019.799805
0.000000	774.460327	7061.070313
0.000000	775.779053	6974.361328
0.000000	777.097778	7155.663086
0.000000	778.416504	7039.723633
0.000000	779.735229	7026.901367
0.000000	781.053955	7104.349609
0.000000	782.372681	7166.856934
0.000000	783.691406	7189.289551
0.000000	785.010132	7205.945801
0.000000	786.328857	7192.600098
0.000000	787.647583	7249.593750
0.000000	788.966309	7155.900391
0.000000	790.285034	7166.945313
0.000000	791.603760	7192.902832
0.000000	792.922485	7175.760254
0.000000	794.241211	7192.049316
0.000000	795.559937	7299.331543
0.000000	796.878662	7166.355957
0.000000	798.197388	7233.539063
0.000000	799.516113	7356.053223
0.000000	800.834839	7318.493164
0.000000	802.153564	7299.058594
0.000000	803.472290	7329.765137
0.000000	804.791016	7357.079590
0.000000	806.109741	7415.436523
0.000000	807.428467	7527.572754
0.000000	808.747192	7345.595215
0.000000	810.065918	7415.673340
0.000000	811.384644	7388.559570
0.000000	812.703369	7397.285156
0.000000	814.022095	7417.423340
0.000000	815.340820	7378.699707
0.000000	816.659546	7485.005859
0.000000	817.978271	7490.532715
0.000000	819.296997	7501.588867
0.000000	820.615723	7447.240234
0.000000	821.934448	7402.687012
0.000000	823.253174	7401.474121
0.000000	824.571899	7430.311523
0.000000	825.890625	7467.530762
0.000000	827.209351	7519.729492
0.000000	828.528076	7529.612793
0.000000	829.846802	7472.824219
0.000000	831.165527	7490.090820
0.000000	832.484253	7504.868652
0.000000	833.802979	7555.318848
0.000000	835.121704	7601.043945
0.000000	836.440430	7571.656250
0.000000	837.759155	7589.331543
0.000000	839.077881	7560.094238
0.000000	840.396606	7697.340820
0.000000	841.715332	7628.753418
0.000000	843.034058	7585.833496
0.000000	844.352783	7620.012207
0.000000	845.671509	7659.377930
0.000000	846.990234	7645.678711
0.000000	848.308960	7610.506348
0.000000	849.627686	7643.714355
0.000000	850.946411	7637.471680
0.000000	852.265137	7564.922852
0.000000	853.583862	7606.119629
0.000000	854.902588	7653.942871
0.000000	856.221313	7679.314941
0.000000	857.540039	7732.844727
0.000000	858.858765	7668.759277
0.000000	860.177490	7607.309570
0.000000	861.496216	7703.555664
0.000000	862.814941	7770.592773
0.000000	864.133667	7751.619141
0.000000	865.452393	7733.893555
0.000000	866.771118	7761.428711
0.000000	868.089844	7779.807129
0.000000	869.408569	7739.207031
0.000000	870.727295	7831.062012
0.000000	872.046021	7776.546387
0.000000	873.364746	7784.870605
0.000000	874.683472	7874.737305
0.000000	876.002197	7878.044434
0.000000	877.320923	7863.269043
0.000000	878.639648	7898.178711
0.000000	879.958374	7830.428223
0.000000	881.277100	7980.891602
0.000000	882.595825	8086.228516
0.000000	883.914551	8000.614258
0.000000	885.233276	7938.633789
0.000000	886.552002	8009.371094
0.000000	887.870728	8000.720215
0.000000	889.189453	7894.563965
0.000000	890.508179	7947.858398
0.000000	891.826904	7898.891113
0.000000	893.145630	8072.073242
0.000000	894.464355	8100.418457
0.000000	895.783081	8140.128418
0.000000	897.101807	8048.965332
0.000000	898.420532	7972.195313
0.000000	899.739258	8027.595703
0.000000	901.057983	8137.425293
0.000000	902.376709	8168.781738
0.000000	903.695435	8064.033203
0.000000	905.014160	8104.839844
0.000000	906.332886	8081.427246
0.000000	907.651611	8066.094727
0.000000	908.970337	8077.597168
0.000000	910.289063	8142.797852
0.000000	911.607788	8215.536133
0.000000	912.926514	8209.804688
0.000000	914.245239	8330.083984
0.000000	915.563965	8222.113281
0.000000	916.882690	8224.621094
0.000000	918.201416	8138.046875
0.000000	919.520142	8181.153320
0.000000	920.838867	8314.933594
0.000000	922.157593	8381.146484
0.000000	923.476318	8342.281250
0.000000	924.795044	8329.774414
0.000000	926.113770	8348.890625
0.000000	927.432495	8156.110352
0.000000	928.751221	8127.323730
0.000000	930.069946	8210.552734
0.000000	931.388672	8257.334961
0.000000	932.707397	8273.949219
0.000000	934.026123	8297.426758
0.000000	935.344849	8331.352539
0.000000	936.663574	8506.418945
0.000000	937.982300	8261.260742
0.000000	939.301025	8234.416016
0.000000	940.619751	8325.530273
0.000000	941.938477	8402.106445
0.000000	943.257202	8267.124023
0.000000	944.575928	8196.026367
0.000000	945.894653	8370.187500
0.000000	947.213379	8391.496094
0.000000	948.532104	8384.109375
0.000000	949.850830	8340.729492
0.000000	951.169556	8343.354492
0.000000	952.488281	8314.640625
0.000000	953.807007	8297.103516
0.000000	955.125732	8262.004883
0.000000	956.444458	8293.265625
0.000000	957.763184	8414.272461
0.000000	959.081909	8401.997070
0.000000	960.400635	8407.891602
0.000000	961.719360	8498.854492
0.000000	963.038086	8412.773438
0.000000	964.356812	8538.413086
0.000000	965.675537	8509.997070
0.000000	966.994263	8495.734375
0.000000	968.312988	8550.848633
0.000000	969.631714	8523.995117
0.000000	970.950439	8556.703125
0.000000	972.269165	8615.775391
0.000000	973.587891	8620.169922
0.000000	974.906616	8689.866211
0.000000	976.225342	8630.174805
0.000000	977.544067	8594.336914
0.000000	978.862793	8618.961914
0.000000	980.181519	8667.143555
0.000000	981.500244	8685.494141
0.000000	982.818970	8631.103516
0.000000	984.137695	8673.071289
0.000000	985.456421	8716.580078
0.000000	986.775146	8751.998047
0.000000	988.093872	8764.340820
0.000000	989.412598	8746.700195
0.000000	990.731323	8751.652344
0.000000	992.050049	8791.404297
0.000000	993.368774	8795.920898
0.000000	994.687500	8717.295898
0.000000	996.006226	8739.304688
0.000000	997.324951	8988.010742
0.000000	998.643677	8964.472656
0.000000	999.962402	8973.199219
0.000000	1001.281128	8855.157227
0.000000	1002.599854	8843.138672
0.000000	1003.918579	8941.065430
0.000000	1005.237305	8948.745117
0.000000	1006.556030	8896.791992
0.000000	1007.874756	9076.948242
0.000000	1009.193481	8993.749023
0.000000	1010.512207	8951.070313
0.000000	1011.830933	9005.311523
0.000000	1013.149658	8994.062500
0.000000	1014.468384	8938.278320
0.000000	1015.787109	8903.049805
0.000000	1017.105835	8925.875000
0.000000	1018.424561	8983.745117
0.000000	1019.743286	9010.645508
0.000000	1021.062012	9108.159180
0.000000	1022.380737	9071.725586
0.000000	1023.699463	9014.981445
0.000000	1025.018188	9014.333008
0.000000	1026.336914	8982.285156
0.000000	1027.655640	8948.983398
0.000000	1028.974365	8952.089844
0.000000	1030.293091	9020.451172
0.000000	1031.611816	9145.207031
0.000000	1032.930542	9072.824219
0.000000	1034.249268	9030.198242
0.000000	1035.567993	9120.998047
0.000000	1036.886719	9141.940430
0.000000	1038.205444	9222.757813
0.000000	1039.524170	9170.758789
0.000000	1040.842896	9104.311523
0.000000	1042.161621	9149.462891
0.000000	1043.480347	9210.225586
0.000000	1044.799072	9222.466797
0.000000	1046.117798	9183.095703
0.000000	1047.436523	9202.918945
0.000000	1048.755249	9191.959961
0.000000	1050.073975	9037.404297
0.000000	1051.392700	9157.688477
0.000000	1052.711426	9271.780273
0.000000	1054.030151	9263.689453
0.000000	1055.348877	9210.458984
0.000000	1056.667603	9119.250000
0.000000	1057.986328	9098.822266
0.000000	1059.305054	9141.979492
0.000000	1060.623779	9236.912109
0.000000	1061.942505	9200.235352
0.000000	1063.261230	9320.814453
0.000000	1064.579956	9351.702148
0.000000	1065.898682	9267.854492
0.000000	1067.217407	9162.389648
0.000000	1068.536133	9176.050781
0.000000	1069.854858	9329.579102
0.000000	1071.173584	9296.388672
0.000000	1072.492310	9389.972656
0.000000	1073.811035	9383.823242
0.000000	1075.129761	9262.772461
0.000000	1076.448486	9373.040039
0.000000	1077.767212	9386.340820
0.000000	1079.085938	9473.572266
0.000000	1080.404663	9538.009766
0.000000	1081.723389	9447.592773
0.000000	1083.042114	9448.807617
0.000000	1084.360840	9582.489258
0.000000	1085.679565	9632.908203
0.000000	1086.998291	9503.501953
0.000000	1088.317017	9542.184570
0.000000	1089.635742	9632.310547
0.000000	1090.954468	9645.583984
0.000000	1092.273193	9719.713867
0.000000	1093.591919	9743.192383
0.000000	1094.910645	9654.838867
0.000000	1096.229370	9645.358398
0.000000	1097.548096	9675.427734
0.000000	1098.866821	9517.672852
0.000000	1100.185547	9641.322266
0.000000	1101.504272	9737.836914
0.000000	1102.822998	9680.809570
0.000000	1104.141724	9764.904297
0.000000	1105.460449	9755.185547
0.000000	1106.779175	9765.879883
0.000000	1108.097900	9809.309570
0.000000	1109.416626	9727.642578
0.000000	1110.735352	9718.052734
0.000000	1112.054077	9855.756836
0.000000	1113.372803	9807.700195
0.000000	1114.691528	9801.935547
0.000000	1116.010254	9878.234375
0.000000	1117.328979	9839.942383
0.000000	1118.647705	9878.961914
0.000000	1119.966431	9845.111328
0.000000	1121.285156	9807.745117
0.000000	1122.603882	9870.628906
0.000000	1123.922607	9896.169922
0.000000	1125.241333	9949.699219
0.000000	1126.560059	9889.738281
0.000000	1127.878784	9849.317383
0.000000	1129.197510	9755.282227
0.000000	1130.516235	9856.806641
0.000000	1131.834961	9943.900391
0.000000	1133.153687	9976.522461
0.000000	1134.472412	9914.703125
0.000000	1135.791138	9886.923828
0.000000	1137.109863	9962.372070
0.000000	1138.428589	9953.458008
0.000000	1139.747314	9975.855469
0.000000	1141.066040	10050.989258
0.000000	1142.384766	9951.107422
0.000000	1143.703491	9897.860352
0.000000	1145.022217	9956.503906
0.000000	1146.340942	10103.833984
0.000000	1147.659668	10107.627930
0.000000	1148.978394	10056.409180
0.000000	1150.297119	10061.821289
0.000000	1151.615845	10104.598633
0.000000	1152.934570	10198.371094
0.000000	1154.253296	10167.915039
0.000000	1155.572021	10199.079102
0.000000	1156.890747	10108.181641
0.000000	1158.209473	10095.212891
0.000000	1159.528198	9961.834961
0.000000	1160.846924	10030.685547
0.000000	1162.165649	10105.798828
0.000000	1163.484375	10090.519531
0.000000	1164.803101	10133.662109
0.000000	1166.121826	10291.510742
0.000000	1167.440552	10374.102539
0.000000	1168.759277	10314.334961
0.000000	1170.078003	10431.439453
0.000000	1171.396729	10304.086914
0.000000	1172.715454	10208.533203
0.000000	1174.034180	10360.542969
0.000000	1175.352905	10293.413086
0.000000	1176.671631	10375.999023
0.000000	1177.990356	10450.177734
0.000000	1179.309082	10369.218750
0.000000	1180.627808	10309.556641
0.000000	1181.946533	10338.328125
0.000000	1183.265259	10387.973633
0.000000	1184.583984	10473.755859
0.000000	1185.902710	10655.722656
0.000000	1187.221436	10604.961914
0.000000	1188.540161	10472.707031
0.000000	1189.858887	10418.530273
0.000000	1191.177612	10439.510742
0.000000	1192.496338	10473.916992
0.000000	1193.815063	10484.223633
0.000000	1195.133789	10481.965820
0.000000	1196.452515	10481.945313
0.000000	1197.771240	10484.186523
0.000000	1199.089966	10564.042969
0.000000	1200.408691	10686.500000
0.000000	1201.727417	10696.178711
0.000000	1203.046143	10637.430664
0.000000	1204.364868	10658.915039
0.000000	1205.683594	10723.223633
0.000000	1207.002319	10744.632813
0.000000	1208.321045	10709.080078
0.000000	1209.639771	10673.569336
0.000000	1210.958496	10687.116211
0.000000	1212.277222	10711.041016
0.000000	1213.595947	10671.313477
0.000000	1214.914673	10684.433594
0.000000	1216.233398	10799.181641
0.000000	1217.552124	10855.305664
0.000000	1218.870850	10729.599609
0.000000	1220.189575	10816.984375
0.000000	1221.508301	10751.094727
0.000000	1222.827026	10770.659180
0.000000	1224.145752	10852.750977
0.000000	1225.464478	10815.640625
0.000000	1226.783203	10732.101563
0.000000	1228.101929	10799.125000
0.000000	1229.420654	10941.893555
0.000000	1230.739380	10975.034180
0.000000	1232.058105	10894.415039
0.000000	1233.376831	10977.772461
0.000000	1234.695557	10878.212891
0.000000	1236.014282	10918.956055
0.000000	1237.333008	10891.233398
0.000000	1238.651733	10931.313477
0.000000	1239.970459	10971.913086
0.000000	1241.289185	10967.403320
0.000000	1242.607910	10946.397461
0.000000	1243.926636	10906.003906
0.000000	1245.245361	10905.760742
0.000000	1246.564087	11017.726563
0.000000	1247.882813	11116.160156
0.000000	1249.201538	10922.249023
0.000000	1250.520264	11045.105469
0.000000	1251.838989	11000.936523
0.000000	1253.157715	11010.690430
0.000000	1254.476440	11008.094727
0.000000	1255.795166	11016.191406
0.000000	1257.113892	11049.635742
0.000000	1258.432617	11092.155273
0.000000	1259.751343	11132.406250
0.000000	1261.070068	11172.451172
0.000000	1262.388794	11250.559570
0.000000	1263.707520	11352.268555
0.000000	1265.026245	11133.912109
0.000000	1266.344971	11259.907227
0.000000	1267.663696	11201.693359
0.000000	1268.982422	11249.276367
0.000000	1270.301147	11172.291992
0.000000	1271.619873	11177.335938
0.000000	1272.938599	11282.001953
0.000000	1274.257324	11356.282227
0.000000	1275.576050	11348.853516
0.000000	1276.894775	11299.555664
0.000000	1278.213501	11268.958008
0.000000	1279.532227	11300.665039
0.000000	1280.850952	11258.547852
0.000000	1282.169678	11397.932617
0.000000	1283.488403	11176.226563
0.000000	1284.807129	11261.013672
0.000000	1286.125854	11413.683594
0.000000	1287.444580	11435.364258
0.000000	1288.763306	11429.407227
0.000000	1290.082031	11434.199219
0.000000	1291.400757	11430.116211
0.000000	1292.719482	11490.347656
0.000000	1294.038208	11591.388672
0.000000	1295.356934	11579.156250
0.000000	1296.675659	11568.937500
0.000000	1297.994385	11656.869141
0.000000	1299.313110	11629.090820
0.000000	1300.631836	11637.525391
0.000000	1301.950562	11763.588867
0.000000	1303.269287	11636.107422
0.000000	1304.588013	11778.523438
0.000000	1305.906738	11809.250977
0.000000	1307.225464	11837.721680
0.000000	1308.544189	11797.640625
0.000000	1309.862915	11760.746094
0.000000	1311.181641	11747.094727
0.000000	1312.500366	11739.929688
0.000000	1313.819092	11924.742188
0.000000	1315.137817	11875.760742
0.000000	1316.456543	11876.231445
0.000000	1317.775269	12066.867188
0.000000	1319.093994	11764.902344
0.000000	1320.412720	11948.298828
0.000000	1321.731445	12135.581055
0.000000	1323.050171	11873.027344
0.000000	1324.368896	11855.623047
0.000000	1325.687622	11947.350586
0.000000	1327.006348	12008.264648
0.000000	1328.325073	12039.875000
0.000000	1329.643799	12036.017578
0.000000	1330.962524	12015.116211
0.000000	1332.281250	12015.037109
0.000000	1333.599976	12152.420898
0.000000	1334.918701	12181.968750
0.000000	1336.237427	11834.689453
0.000000	1337.556152	12030.213867
0.000000	1338.874878	12018.561523
0.000000	1340.193604	12057.025391
0.000000	1341.512329	12129.811523
0.000000	1342.831055	12177.143555
0.000000	1344.149780	12170.637695
0.000000	1345.468506	12111.322266
0.000000	1346.787231	12091.749023
0.000000	1348.105957	12127.200195
0.000000	1349.424683	12136.663086
0.000000	1350.743408	12138.343750
0.000000	1352.062134	12221.651367
0.000000	1353.380859	12348.244141
0.000000	1354.699585	12086.471680
0.000000	1356.018311	12081.890625
0.000000	1357.337036	12083.821289
0.000000	1358.655762	12242.823242
0.000000	1359.974487	12239.778320
0.000000	1361.293213	12178.383789
0.000000	1362.611938	12152.178711
0.000000	1363.930664	12122.498047
0.000000	1365.249390	12307.186523
0.000000	1366.568115	12358.091797
0.000000	1367.886841	12217.800781
0.000000	1369.205566	12258.369141
0.000000	1370.524292	12268.887695
0.000000	1371.843018	12285.583984
0.000000	1373.161743	12255.715820
0.000000	1374.480469	12229.976563
0.000000	1375.799194	12306.598633
0.000000	1377.117920	12121.163086
0.000000	1378.436646	12378.933594
0.000000	1379.755371	12339.406250
0.000000	1381.074097	12435.480469
0.000000	1382.392822	12352.385742
0.000000	1383.711548	12376.735352
0.000000	1385.030273	12467.873047
0.000000	1386.348999	12437.910156
0.000000	1387.667725	12416.251953
0.000000	1388.986450	12486.610352
0.000000	1390.305176	12485.710938
0.000000	1391.623901	12446.383789
0.000000	1392.942627	12472.272461
0.000000	1394.261353	12540.332031
0.000000	1395.580078	12489.199219
0.000000	1396.898804	12722.596680
0.000000	1398.217529	12613.013672
0.000000	1399.536255	12710.770508
0.000000	1400.854980	12634.032227
0.000000	1402.173706	12570.951172
0.000000	1403.492432	12596.100586
0.000000	1404.811157	12724.359375
0.000000	1406.129883	12721.521484
0.000000	1407.448608	12690.502930
0.000000	1408.767334	12747.023438
0.000000	1410.086060	12754.250977
0.000000	1411.404785	12755.759766
0.000000	1412.723511	12830.549805
0.000000	1414.042236	12754.117188
0.000000	1415.360962	12764.554688
0.000000	1416.679688	12865.255859
0.000000	1417.998413	12850.675781
0.000000	1419.317139	12870.986328
0.000000	1420.635864	12838.652344
0.000000	1421.954590	12886.379883
0.000000	1423.273315	12953.943359
0.000000	1424.592041	12982.339844
0.000000	1425.910767	12995.125000
0.000000	1427.229492	12998.110352
0.000000	1428.548218	12948.153320
0.000000	1429.866943	12948.909180
0.000000	1431.185669	13004.163086
0.000000	1432.504395	12967.206055
0.000000	1433.823120	12917.598633
0.000000	1435.141846	13018.491211
0.000000	1436.460571	13156.051758
0.000000	1437.779297	13152.603516
0.000000	1439.098022	13167.240234
0.000000	1440.416748	13135.749023
0.000000	1441.735474	13090.831055
0.000000	1443.054199	13088.362305
0.000000	1444.372925	13110.975586
0.000000	1445.691650	13204.002930
0.000000	1447.010376	13142.264648
0.000000	1448.329102	13155.636719
0.000000	1449.647827	13189.630859
0.000000	1450.966553	13209.723633
0.000000	1452.285278	13219.088867
0.000000	1453.604004	13192.851563
0.000000	1454.922729	13154.048828
0.000000	1456.241455	13185.047852
0.000000	1457.560181	13292.811523
0.000000	1458.878906	13309.238281
0.000000	1460.197632	13248.108398
0.000000	1461.516357	13221.210938
0.000000	1462.835083	13291.767578
0.000000	1464.153809	13302.475586
0.000000	1465.472534	13341.650391
0.000000	1466.791260	13324.415039
0.000000	1468.109985	13258.516602
0.000000	1469.428711	13237.265625
0.000000	1470.747437	13292.003906
0.000000	1472.066162	13388.721680
0.000000	1473.384888	13525.208008
0.000000	1474.703613	13461.735352
0.000000	1476.022339	13349.543945
0.000000	1477.341064	13383.029297
0.000000	1478.659790	13480.015625
0.000000	1479.978516	13485.273438
0.000000	1481.297241	13413.806641
0.000000	1482.615967	13470.516602
0.000000	1483.934692	13354.508789
0.000000	1485.253418	13380.561523
0.000000	1486.572144	13371.403320
0.000000	1487.890869	13321.463867
0.000000	1489.209595	13429.417969
0.000000	1490.528320	13455.458984
0.000000	1491.847046	13669.464844
0.000000	1493.165771	13517.736328
0.000000	1494.484497	13368.598633
0.000000	1495.803223	13542.185547
0.000000	1497.121948	13561.874023
0.000000	1498.440674	13466.898438
0.000000	1499.759399	13612.037109
0.000000	1501.078125	13599.570313
0.000000	1502.396851	13438.380859
0.000000	1503.715576	13483.330078
0.000000	1505.034302	13595.806641
0.000000	1506.353027	13719.246094
0.000000	1507.671753	13817.973633
0.000000	1508.990479	13569.054688
0.000000	1510.309204	13707.942383
0.000000	1511.627930	13742.956055
0.000000	1512.946655	13626.114258
0.000000	1514.265381	13736.167969
0.000000	1515.584106	13688.729492
0.000000	1516.902832	13752.674805
0.000000	1518.221558	13892.327148
0.000000	1519.540283	13864.441406
0.000000	1520.859009	13880.651367
0.000000	1522.177734	13895.746094
0.000000	1523.496460	13958.333984
0.000000	1524.815186	13921.283203
0.000000	1526.133911	13813.681641
0.000000	1527.452637	13881.969727
0.000000	1528.771362	13981.244141
0.000000	1530.090088	13850.994141
0.000000	1531.408813	13875.915039
0.000000	1532.727539	14128.455078
0.000000	1534.046265	14107.087891
0.000000	1535.364990	14100.535156
0.000000	1536.683716	14126.333008
0.000000	1538.002441	14023.683594
0.000000	1539.321167	14060.913086
0.000000	1540.639893	14180.772461
0.000000	1541.958618	14129.120117
0.000000	1543.277344	14070.657227
0.000000	1544.596069	14244.238281
0.000000	1545.914795	14291.838867
0.000000	1547.233521	14229.856445
0.000000	1548.552246	14208.794922
0.000000	1549.870972	14141.679688
0.000000	1551.189697	14139.003906
0.000000	1552.508423	14074.321289
0.000000	1553.827148	14176.125977
0.000000	1555.145874	14215.749023
0.000000	1556.464600	14174.288086
0.000000	1557.783325	14202.806641
0.000000	1559.102051	14197.456055
0.000000	1560.420776	14146.993164
0.000000	1561.739502	14215.259766
0.000000	1563.058228	14269.309570
0.000000	1564.376953	14241.376953
0.000000	1565.695679	14360.185547
0.000000	1567.014404	14259.597656
0.000000	1568.333130	14202.761719
0.000000	1569.651855	14164.191406
0.000000	1570.970581	14491.032227
0.000000	1572.289307	14415.688477
0.000000	1573.608032	14402.485352
0.000000	1574.926758	14286.371094
0.000000	1576.245483	14290.750977
0.000000	1577.564209	14290.287109
0.000000	1578.882935	14321.755859
0.000000	1580.201660	14205.221680
0.000000	1581.520386	14199.953125
0.000000	1582.839111	14360.343750
0.000000	1584.157837	14468.869141
0.000000	1585.476563	14392.971680
0.000000	1586.795288	14349.248047
0.000000	1588.114014	14363.936523
0.000000	1589.432739	14441.788086
0.000000	1590.751465	14441.531250
0.000000	1592.070190	14395.102539
0.000000	1593.388916	14376.452148
0.000000	1594.707642	14405.982422
0.000000	1596.026367	14557.343750
0.000000	1597.345093	14538.967773
0.000000	1598.663818	14454.252930
0.000000	1599.982544	14477.166016
0.000000	1601.301270	14511.370117
0.000000	1602.619995	14501.697266
0.000000	1603.938721	14601.631836
0.000000	1605.257446	14643.283203
0.000000	1606.576172	14550.649414
0.000000	1607.894897	14626.906250
0.000000	1609.213623	14604.770508
0.000000	1610.532349	14608.019531
0.000000	1611.851074	14628.518555
0.000000	1613.169800	14577.092773
0.000000	1614.488525	14678.978516
0.000000	1615.807251	14680.111328
0.000000	1617.125977	14841.589844
0.000000	1618.444702	14833.455078
0.000000	1619.763428	14836.742188
0.000000	1621.082153	14870.488281
0.000000	1622.400879	14960.179688
0.000000	1623.719604	14947.965820
0.000000	1625.038330	14904.705078
0.000000	1626.357056	14750.808594
0.000000	1627.675781	14675.333008
0.000000	1628.994507	14842.131836
0.000000	1630.313232	14951.053711
0.000000	1631.631958	15001.546875
0.000000	1632.950684	15074.929688
0.000000	1634.269409	15100.081055
0.000000	1635.588135	15019.496094
0.000000	1636.906860	14965.413086
0.000000	1638.225586	14941.879883
0.000000	1639.544312	15120.817383
0.000000	1640.863037	15220.379883
0.000000	1642.181763	15159.014648
0.000000	1643.500488	14960.625000
0.000000	1644.819214	15163.292969
0.000000	1646.137939	15126.833008
0.000000	1647.456665	15124.006836
0.000000	1648.775391	15162.378906
0.000000	1650.094116	15078.073242
0.000000	1651.412842	15230.888672
0.000000	1652.731567	15274.092773
0.000000	1654.050293	15150.833008
0.000000	1655.369019	15186.998047
0.000000	1656.687744	15140.872070
0.000000	1658.006470	15167.832031
0.000000	1659.325195	15100.035156
0.000000	1660.643921	15168.424805
0.000000	1661.962646	15300.934570
0.000000	1663.281372	15282.440430
0.000000	1664.600098	15255.666992
0.000000	1665.918823	15326.301758
0.000000	1667.237549	15410.288086
0.000000	1668.556274	15367.083008
0.000000	1669.875000	15197.601563
0.000000	1671.193726	15204.117188
0.000000	1672.512451	15364.662109
0.000000	1673.831177	15396.408203
0.000000	1675.149902	15382.552734
0.000000	1676.468628	15301.333984
0.000000	1677.787354	15370.120117
0.000000	1679.106079	15312.015625
0.000000	1680.424805	15416.166992
0.000000	1681.743530	15440.744141
0.000000	1683.062256	15408.990234
0.000000	1684.380981	15396.265625
0.000000	1685.699707	15254.255859
0.000000	1687.018433	15302.221680
0.000000	1688.337158	15460.893555
0.000000	1689.655884	15372.606445
0.000000	1690.974609	15371.642578
0.000000	1692.293335	15345.529297
0.000000	1693.612061	15312.429688
0.000000	1694.930786	15335.152344
0.000000	1696.249512	15423.942383
0.000000	1697.568237	15510.326172
0.000000	1698.886963	15527.234375
0.000000	1700.205688	15412.666016
0.000000	1701.524414	15375.810547
0.000000	1702.843140	15431.732422
0.000000	1704.161865	15201.666992
0.000000	1705.480591	15372.406250
0.000000	1706.799316	15438.202148
0.000000	1708.118042	15531.916016
0.000000	1709.436768	15545.044922
0.000000	1710.755493	15496.483398
0.000000	1712.074219	15424.875000
0.000000	1713.392944	15493.580078
0.000000	1714.711670	15508.495117
0.000000	1716.030396	15428.679688
0.000000	1717.349121	15482.030273
0.000000	1718.667847	15485.838867
0.000000	1719.986572	15603.373047
0.000000	1721.305298	15655.320313
0.000000	1722.624023	15432.363281
0.000000	1723.942749	15477.370117
0.000000	1725.261475	15538.461914
0.000000	1726.580200	15524.391602
0.000000	1727.898926	15472.712891
0.000000	1729.217651	15605.783203
0.000000	1730.536377	15585.571289
0.000000	1731.855103	15642.130859
0.000000	1733.173828	15662.686523
0.000000	1734.492554	15665.345703
0.000000	1735.811279	15861.898438
0.000000	1737.130005	15764.699219
0.000000	1738.448730	15686.296875
0.000000	1739.767456	15772.141602
0.000000	1741.086182	15703.030273
0.000000	1742.404907	15816.192383
0.000000	1743.723633	15836.885742
0.000000	1745.042358	15868.208984
0.000000	1746.361084	15726.906250
0.000000	1747.679810	15643.811523
0.000000	1748.998535	15827.140625
0.000000	1750.317261	16048.299805
0.000000	1751.635986	16033.785156
0.000000	1752.954712	15786.309570
0.000000	1754.273438	16031.751953
0.000000	1755.592163	15898.734375
0.000000	1756.910889	16151.226563
0.000000	1758.229614	15887.636719
0.000000	1759.548340	15881.960938
0.000000	1760.867065	15733.112305
0.000000	1762.185791	16073.951172
0.000000	1763.504517	15924.412109
0.000000	1764.823242	15936.924805
0.000000	1766.141968	15978.935547
0.000000	1767.460693	15930.887695
0.000000	1768.779419	16017.943359
0.000000	1770.098145	16171.089844
0.000000	1771.416870	16086.625000
0.000000	1772.735596	16010.068359
0.000000	1774.054321	16047.456055
0.000000	1775.373047	16152.296875
0.000000	1776.691772	16050.290039
0.000000	1778.010498	16057.386719
0.000000	1779.329224	16164.443359
0.000000	1780.647949	16170.894531
0.000000	1781.966675	16124.520508
0.000000	1783.285400	16004.578125
0.000000	1784.604126	15977.474609
0.000000	1785.922852	16076.999023
0.000000	1787.241577	16068.993164
0.000000	1788.560303	16053.670898
0.000000	1789.879028	16156.278320
0.000000	1791.197754	16229.352539
0.000000	1792.516479	16233.907227
0.000000	1793.835205	16169.098633
0.000000	1795.153931	16104.182617
0.000000	1796.472656	16152.378906
0.000000	1797.791382	16210.402344
0.000000	1799.110107	16271.047852
0.000000	1800.428833	16249.510742
0.000000	1801.747559	16178.858398
0.000000	1803.066284	16280.883789
0.000000	1804.385010	16252.810547
0.000000	1805.703735	16214.921875
0.000000	1807.022461	16148.881836
0.000000	1808.341187	16248.181641
0.000000	1809.659912	16277.308594
0.000000	1810.978638	16229.918945
0.000000	1812.297363	16188.133789
0.000000	1813.616089	16030.554688
0.000000	1814.934814	16187.320313
0.000000	1816.253540	16028.073242
0.000000	1817.572266	16124.161133
0.000000	1818.890991	16113.581055
0.000000	1820.209717	16301.330078
0.000000	1821.528442	16080.441406
0.000000	1822.847168	16004.320313
0.000000	1824.165894	16072.130859
0.000000	1825.484619	16108.044922
0.000000	1826.803345	16146.128906
0.000000	1828.122070	16301.169922
0.000000	1829.440796	16188.732422
0.000000	1830.759521	16231.292969
0.000000	1832.078247	16390.277344
0.000000	1833.396973	16069.222656
0.000000	1834.715698	16119.875977
0.000000	1836.034424	16395.085938
0.000000	1837.353149	16097.503906
0.000000	1838.671875	16226.017578
0.000000	1839.990601	16260.498047
0.000000	1841.309326	16331.921875
0.000000	1842.628052	16290.451172
0.000000	1843.946777	16212.652344
0.000000	1845.265503	16348.409180
0.000000	1846.584229	16231.979492
0.000000	1847.902954	16400.755859
0.000000	1849.221680	16603.023438
0.000000	1850.540405	16491.148438
0.000000	1851.859131	16276.198242
0.000000	1853.177856	16541.714844
0.000000	1854.496582	16383.541992
0.000000	1855.815308	16296.387695
0.000000	1857.134033	16632.087891
0.000000	1858.452759	16462.494141
0.000000	1859.771484	16611.339844
0.000000	1861.090210	16661.070313
0.000000	1862.408936	16518.117188
0.000000	1863.727661	16493.123047
0.000000	1865.046387	16588.080078
0.000000	1866.365112	16512.767578
0.000000	1867.683838	16815.632813
0.000000	1869.002563	16760.509766
0.000000	1870.321289	16718.550781
0.000000	1871.640015	16663.884766
0.000000	1872.958740	16784.667969
0.000000	1874.277466	16793.205078
0.000000	1875.596191	16783.623047
0.000000	1876.914917	16739.826172
0.000000	1878.233643	16788.755859
0.000000	1879.552368	16740.832031
0.000000	1880.871094	16900.761719
0.000000	1882.189819	16783.548828
0.000000	1883.508545	16965.896484
0.000000	1884.827271	16742.589844
0.000000	1886.145996	16670.726563
0.000000	1887.464722	16860.203125
0.000000	1888.783447	16643.873047
0.000000	1890.102173	16849.273438
0.000000	1891.420898	16657.822266
0.000000	1892.739624	16805.394531
0.000000	1894.058350	16929.259766
0.000000	1895.377075	16883.265625
0.000000	1896.695801	16792.271484
0.000000	1898.014526	16910.001953
0.000000	1899.333252	16983.431641
0.000000	1900.651978	16922.464844
0.000000	1901.970703	16795.685547
0.000000	1903.289429	16715.972656
0.000000	1904.608154	16754.078125
0.000000	1905.926880	17021.972656
0.000000	1907.245605	17065.871094
0.000000	1908.564331	16941.000000
0.000000	1909.883057	17118.535156
0.000000	1911.201782	16814.072266
0.000000	1912.520508	16954.156250
0.000000	1913.839233	16986.060547
0.000000	1915.157959	16887.611328
0.000000	1916.476685	16879.402344
0.000000	1917.795410	16978.156250
0.000000	1919.114136	17087.685547
0.000000	1920.432861	17009.337891
0.000000	1921.751587	17030.308594
0.000000	1923.070313	16937.156250
0.000000	1924.389038	17106.921875
0.000000	1925.707764	17156.746094
0.000000	1927.026489	16956.908203
0.000000	1928.345215	16960.500000
0.000000	1929.663940	17078.044922
0.000000	1930.982666	17234.826172
0.000000	1932.301392	16933.076172
0.000000	1933.620117	16839.060547
0.000000	1934.938843	16962.548828
0.000000	1936.257568	16980.375000
0.000000	1937.576294	16901.689453
0.000000	1938.895020	16689.441406
0.000000	1940.213745	16859.435547
0.000000	1941.532471	16830.951172
0.000000	1942.851196	17007.394531
0.000000	1944.169922	17042.060547
0.000000	1945.488647	17108.583984
0.000000	1946.807373	17070.085938
0.000000	1948.126099	17046.242188
0.000000	1949.444824	16963.289063
0.000000	1950.763550	17211.906250
0.000000	1952.082275	17127.326172
0.000000	1953.401001	17100.654297
0.000000	1954.719727	16963.335938
0.000000	1956.038452	16817.931641
0.000000	1957.357178	17162.714844
0.000000	1958.675903	17050.613281
0.000000	1959.994629	17194.269531
0.000000	1961.313354	17235.281250
0.000000	1962.632080	17111.060547
0.000000	1963.950806	17182.105469
0.000000	1965.269531	17134.851563
0.000000	1966.588257	17202.605469
0.000000	1967.906982	17249.371094
0.000000	1969.225708	17328.457031
0.000000	1970.544434	17238.191406
0.000000	1971.863159	17257.593750
0.000000	1973.181885	17231.882813
0.000000	1974.500610	17143.484375
0.000000	1975.819336	17124.367188
0.000000	1977.138062	17271.890625
0.000000	1978.456787	17285.537109
0.000000	1979.775513	17259.818359
0.000000	1981.094238	17319.529297
0.000000	1982.412964	17187.744141
0.000000	1983.731689	17359.294922
0.000000	1985.050415	17314.136719
0.000000	1986.369141	17492.226563
0.000000	1987.687866	17532.212891
0.000000	1989.006592	17525.103516
0.000000	1990.325317	17498.152344
0.000000	1991.644043	17421.748047
0.000000	1992.962769	17472.283203
0.000000	1994.281494	17504.949219
0.000000	1995.600220	17506.974609
0.000000	1996.918945	17555.105469
0.000000	1998.237671	17451.408203
0.000000	1999.556396	17541.439453
0.000000	2000.875122	17473.406250
0.000000	2002.193848	17358.890625
0.000000	2003.512573	17463.425781
0.000000	2004.831299	17543.273438
0.000000	2006.150024	17625.917969
0.000000	2007.468750	17660.363281
0.000000	2008.787476	17672.976563
0.000000	2010.106201	17604.025391
0.000000	2011.424927	17531.259766
0.000000	2012.743652	17718.074219
0.000000	2014.062378	17691.029297
0.000000	2015.381104	17531.966797
0.000000	2016.699829	17489.722656
0.000000	2018.018555	17532.259766
0.000000	2019.337280	17546.250000
0.000000	2020.656006	17667.064453
0.000000	2021.974731	17719.169922
0.000000	2023.293457	17587.160156
0.000000	2024.612183	17636.298828
0.000000	2025.930908	17740.660156
0.000000	2027.249634	17649.164063
0.000000	2028.568359	17566.212891
0.000000	2029.887085	17801.878906
0.000000	2031.205811	17637.210938
0.000000	2032.524536	17644.781250
0.000000	2033.843262	17784.070313
0.000000	2035.161987	17649.128906
0.000000	2036.480713	17754.199219
0.000000	2037.799438	17896.966797
0.000000	2039.118164	17556.398438
0.000000	2040.436890	17661.453125
0.000000	2041.755615	17651.478516
0.000000	2043.074341	17860.048828
0.000000	2044.393066	17658.072266
0.000000	2045.711792	17714.400391
0.000000	2047.030518	17715.546875
0.000000	2048.349121	17717.710938
0.000000	2049.667725	17730.638672
0.000000	2050.986328	17730.425781
0.000000	2052.304932	17798.656250
0.000000	2053.623535	17929.337891
0.000000	2054.942139	17811.156250
0.000000	2056.260742	17811.933594
0.000000	2057.579346	17670.355469
0.000000	2058.897949	17752.666016
0.000000	2060.216553	17670.410156
0.000000	2061.535156	17681.378906
0.000000	2062.853760	17725.746094
0.000000	2064.172363	17701.125000
0.000000	2065.490967	17542.380859
0.000000	2066.809570	17589.476563
0.000000	2068.128174	17575.562500
0.000000	2069.446777	17557.820313
0.000000	2070.765381	17696.882813
0.000000	2072.083984	17731.564453
0.000000	2073.402588	17562.242188
0.000000	2074.721191	17653.394531
0.000000	2076.039795	17715.197266
0.000000	2077.358398	17621.675781
0.000000	2078.677002	17673.906250
0.000000	2079.995605	17817.521484
0.000000	2081.314209	17776.460938
0.000000	2082.632813	17904.269531
0.000000	2083.951416	17885.107422
0.000000	2085.270020	17786.160156
0.000000	2086.588623	17895.337891
0.000000	2087.907227	17928.101563
0.000000	2089.225830	17937.480469
0.000000	2090.544434	17867.244141
0.000000	2091.863037	17753.267578
0.000000	2093.181641	17803.785156
0.000000	2094.500244	17991.251953
0.000000	2095.818848	17772.136719
0.000000	2097.137451	17847.423828
0.000000	2098.456055	17882.089844
0.000000	2099.774658	17929.011719
0.000000	2101.093262	18014.312500
0.000000	2102.411865	18075.958984
0.000000	2103.730469	17783.240234
0.000000	2105.049072	18121.251953
0.000000	2106.367676	17941.728516
0.000000	2107.686279	17928.935547
0.000000	2109.004883	18053.091797
0.000000	2110.323486	18044.226563
0.000000	2111.642090	18002.445313
0.000000	2112.960693	18096.625000
0.000000	2114.279297	17871.740234
0.000000	2115.597900	17850.054688
0.000000	2116.916504	17966.083984
0.000000	2118.235107	18077.167969
0.000000	2119.553711	18217.919922
0.000000	2120.872314	18215.832031
0.000000	2122.190918	18066.556641
0.000000	2123.509521	17963.775391
0.000000	2124.828125	18295.466797
0.000000	2126.146729	18258.597656
0.000000	2127.465332	18084.214844
0.000000	2128.783936	17954.337891
0.000000	2130.102539	17939.416016
0.000000	2131.421143	18124.457031
0.000000	2132.739746	18154.650391
0.000000	2134.058350	17983.755859
0.000000	2135.376953	17997.230469
0.000000	2136.695557	18117.634766
0.000000	2138.014160	18320.015625
0.000000	2139.332764	18345.623047
0.000000	2140.651367	18090.769531
0.000000	2141.969971	18306.154297
0.000000	2143.288574	18236.203125
0.000000	2144.607178	18334.285156
0.000000	2145.925781	18140.830078
0.000000	2147.244385	18213.072266
0.000000	2148.562988	17911.984375
0.000000	2149.881592	18096.720703
0.000000	2151.200195	18061.777344
0.000000	2152.518799	18015.585938
0.000000	2153.837402	18245.884766
0.000000	2155.156006	18414.728516
0.000000	2156.474609	18372.630859
0.000000	2157.793213	18167.363281
0.000000	2159.111816	18216.464844
0.000000	2160.430420	18233.429688
0.000000	2161.749023	18263.197266
0.000000	2163.067627	18360.628906
0.000000	2164.386230	18320.259766
0.000000	2165.704834	18113.812500
0.000000	2167.023438	18213.724609
0.000000	2168.342041	18289.683594
0.000000	2169.660645	18270.964844
0.000000	2170.979248	18317.291016
0.000000	2172.297852	18191.291016
0.000000	2173.616455	18119.203125
0.000000	2174.935059	18468.576172
0.000000	2176.253662	18246.494141
0.000000	2177.572266	18068.322266
0.000000	2178.890869	18241.570313
0.000000	2180.209473	18298.591797
0.000000	2181.528076	18125.130859
0.000000	2182.846680	18217.183594
0.000000	2184.165283	18348.689453
0.000000	2185.483887	18370.542969
0.000000	2186.802490	18316.898438
0.000000	2188.121094	18303.095703
0.000000	2189.439697	18266.777344
0.000000	2190.758301	18361.378906
0.000000	2192.076904	18219.261719
0.000000	2193.395508	18185.154297
0.000000	2194.714111	18195.371094
0.000000	2196.032715	18210.636719
0.000000	2197.351318	18439.169922
0.000000	2198.669922	18412.544922
0.000000	2199.988525	18325.689453
0.000000	2201.307129	18449.455078
0.000000	2202.625732	18607.742188
0.000000	2203.944336	18486.652344
0.000000	2205.262939	18288.619141
0.000000	2206.581543	18347.199219
0.000000	2207.900146	18393.574219
0.000000	2209.218750	18248.279297
0.000000	2210.537354	18299.341797
0.000000	2211.855957	18398.222656
0.000000	2213.174561	18283.074219
0.000000	2214.493164	18545.191406
0.000000	2215.811768	18415.017578
0.000000	2217.130371	18536.687500
0.000000	2218.448975	18473.234375
0.000000	2219.767578	18684.732422
0.000000	2221.086182	18403.498047
0.000000	2222.404785	18372.697266
0.000000	2223.723389	18528.263672
0.000000	2225.041992	18437.474609
0.000000	2226.360596	18400.484375
0.000000	2227.679199	18457.466797
0.000000	2228.997803	18424.138672
0.000000	2230.316406	18501.783203
0.000000	2231.635010	18472.085938
0.000000	2232.953613	18511.023438
0.000000	2234.272217	18420.144531
0.000000	2235.590820	18436.072266
0.000000	2236.909424	18483.687500
0.000000	2238.228027	18494.431641
0.000000	2239.546631	18332.890625
0.000000	2240.865234	18638.222656
0.000000	2242.183838	18447.117188
0.000000	2243.502441	18450.101563
0.000000	2244.821045	18432.322266
0.000000	2246.139648	18626.193359
0.000000	2247.458252	18552.394531
0.000000	2248.776855	18740.404297
0.000000	2250.095459	18695.658203
0.000000	2251.414063	18507.910156
0.000000	2252.732666	18624.273438
0.000000	2254.051270	18547.585938
0.000000	2255.369873	18495.255859
0.000000	2256.688477	18723.085938
0.000000	2258.007080	18573.039063
0.000000	2259.325684	18548.984375
0.000000	2260.644287	18670.765625
0.000000	2261.962891	18616.593750
0.000000	2263.281494	18582.218750
0.000000	2264.600098	18461.490234
0.000000	2265.918701	18578.931641
0.000000	2267.237305	18559.177734
0.000000	2268.555908	18683.562500
0.000000	2269.874512	18627.646484
0.000000	2271.193115	18907.169922
0.000000	2272.511719	18535.695313
0.000000	2273.830322	18566.714844
0.000000	2275.148926	18532.044922
0.000000	2276.467529	18611.839844
0.000000	2277.786133	18616.943359
0.000000	2279.104736	18580.470703
0.000000	2280.423340	18570.818359
0.000000	2281.741943	18497.376953
0.000000	2283.060547	18665.433594
0.000000	2284.379150	18580.658203
0.000000	2285.697754	18522.195313
0.000000	2287.016357	18523.966797
0.000000	2288.334961	18484.064453
0.000000	2289.653564	18694.712891
0.000000	2290.972168	18679.496094
0.000000	2292.290771	18598.298828
0.000000	2293.609375	18621.587891
0.000000	2294.927979	18683.964844
0.000000	2296.246582	18438.916016
0.000000	2297.565186	18420.912109
0.000000	2298.883789	18593.173828
0.000000	2300.202393	18556.970703
0.000000	2301.520996	18410.140625
0.000000	2302.839600	18511.257813
0.000000	2304.158203	18778.394531
0.000000	2305.476807	18747.751953
0.000000	2306.795410	18710.832031
0.000000	2308.114014	18663.343750
0.000000	2309.432617	18685.765625
0.000000	2310.751221	18585.412109
0.000000	2312.069824	18661.837891
0.000000	2313.388428	18670.722656
0.000000	2314.707031	18783.531250
0.000000	2316.025635	18673.224609
0.000000	2317.344238	18377.988281
0.000000	2318.662842	18794.566406
0.000000	2319.981445	18737.658203
0.000000	2321.300049	18755.496094
0.000000	2322.618652	18736.824219
0.000000	2323.937256	18642.376953
0.000000	2325.255859	18745.644531
0.000000	2326.574463	18975.083984
0.000000	2327.893066	18924.794922
0.000000	2329.211670	18674.380859
0.000000	2330.530273	18752.841797
0.000000	2331.848877	18815.175781
0.000000	2333.167480	18900.392578
0.000000	2334.486084	18943.671875
0.000000	2335.804688	18936.716797
0.000000	2337.123291	18869.931641
0.000000	2338.441895	18820.011719
0.000000	2339.760498	18900.523438
0.000000	2341.079102	18819.556641
0.000000	2342.397705	18944.619141
0.000000	2343.716309	18846.947266
0.000000	2345.034912	18981.439453
0.000000	2346.353516	18911.599609
0.000000	2347.672119	18996.074219
0.000000	2348.990723	18880.007813
0.000000	2350.309326	18992.718750
0.000000	2351.627930	18897.994141
0.000000	2352.946533	18909.396484
0.000000	2354.265137	18951.886719
0.000000	2355.583740	19104.105469
0.000000	2356.902344	19061.109375
0.000000	2358.220947	19133.169922
0.000000	2359.539551	19149.837891
0.000000	2360.858154	19045.128906
0.000000	2362.176758	19036.093750
0.000000	2363.495361	18857.228516
0.000000	2364.813965	19026.621094
0.000000	2366.132568	19118.021484
0.000000	2367.451172	18924.912109
0.000000	2368.769775	19019.814453
0.000000	2370.088379	18870.933594
0.000000	2371.406982	18926.673828
0.000000	2372.725586	18976.892578
0.000000	2374.044189	18971.027344
0.000000	2375.362793	19020.150391
0.000000	2376.681396	18932.095703
0.000000	2378.000000	19073.931641
0.000000	2379.318604	19225.765625
0.000000	2380.637207	19146.003906
0.000000	2381.955811	18987.791016
0.000000	2383.274414	19206.748047
0.000000	2384.593018	19138.226563
0.000000	2385.911621	19090.710938
0.000000	2387.230225	19134.789063
0.000000	2388.548828	19167.175781
0.000000	2389.867432	19109.300781
0.000000	2391.186035	18918.837891
0.000000	2392.504639	18777.451172
0.000000	2393.823242	18957.349609
0.000000	2395.141846	19145.607422
0.000000	2396.460449	19029.488281
0.000000	2397.779053	19384.214844
0.000000	2399.097656	19210.671875
0.000000	2400.416260	19095.490234
0.000000	2401.734863	19061.806641
0.000000	2403.053467	19179.902344
0.000000	2404.372070	19135.990234
0.000000	2405.690674	19189.994141
0.000000	2407.009277	19201.845703
0.000000	2408.327881	19033.667969
0.000000	2409.646484	19044.199219
0.000000	2410.965088	19140.242188
0.000000	2412.283691	18958.412109
0.000000	2413.602295	19194.865234
0.000000	2414.920898	19040.222656
0.000000	2416.239502	19125.972656
0.000000	2417.558105	19174.775391
0.000000	2418.876709	19212.054688
0.000000	2420.195313	19351.722656
0.000000	2421.513916	19213.451172
0.000000	2422.832520	19201.164063
0.000000	2424.151123	19201.500000
0.000000	2425.469727	19157.556641
0.000000	2426.788330	19260.257813
0.000000	2428.106934	19336.380859
0.000000	2429.425537	19353.666016
0.000000	2430.744141	19504.265625
0.000000	2432.062744	19130.863281
0.000000	2433.381348	19321.400391
0.000000	2434.699951	19121.960938
0.000000	2436.018555	19375.255859
0.000000	2437.337158	19265.449219
0.000000	2438.655762	19348.212891
0.000000	2439.974365	19490.636719
0.000000	2441.292969	19258.888672
0.000000	2442.611572	19259.505859
0.000000	2443.930176	19252.414063
0.000000	2445.248779	19250.525391
0.000000	2446.567383	19304.083984
0.000000	2447.885986	19492.250000
0.000000	2449.204590	19485.240234
0.000000	2450.523193	19622.250000
0.000000	2451.841797	19262.134766
0.000000	2453.160400	19206.763672
0.000000	2454.479004	19317.695313
0.000000	2455.797607	19387.060547
0.000000	2457.116211	19457.347656
0.000000	2458.434814	19363.207031
0.000000	2459.753418	19170.882813
0.000000	2461.072021	19190.156250
0.000000	2462.390625	19275.636719
0.000000	2463.709229	19339.630859
0.000000	2465.027832	19495.660156
0.000000	2466.346436	19440.330078
0.000000	2467.665039	19457.105469
0.000000	2468.983643	19495.119141
0.000000	2470.302246	19301.220703
0.000000	2471.620850	19603.767578
0.000000	2472.939453	19487.832031
0.000000	2474.258057	19501.720703
0.000000	2475.576660	19599.169922
0.000000	2476.895264	19399.146484
0.000000	2478.213867	19514.476563
0.000000	2479.532471	19748.068359
0.000000	2480.851074	19716.082031
0.000000	2482.169678	19656.207031
0.000000	2483.488281	19408.878906
0.000000	2484.806885	19605.539063
0.000000	2486.125488	19428.806641
0.000000	2487.444092	19472.656250
0.000000	2488.762695	19469.671875
0.000000	2490.081299	19544.789063
0.000000	2491.399902	19616.548828
0.000000	2492.718506	19532.396484
0.000000	2494.037109	19594.613281
0.000000	2495.355713	19557.078125
0.000000	2496.674316	19647.892578
0.000000	2497.992920	19523.380859
0.000000	2499.311523	19535.238281
0.000000	2500.630127	19299.607422
0.000000	2501.948730	19437.841797
0.000000	2503.267334	19554.753906
0.000000	2504.585938	19589.748047
0.000000	2505.904541	19571.767578
0.000000	2507.223145	19621.835938
0.000000	2508.541748	19500.902344
0.000000	2509.860352	19442.476563
0.000000	2511.178955	19455.310547
0.000000	2512.497559	19613.529297
0.000000	2513.816162	19488.306641
0.000000	2515.134766	19586.648438
0.000000	2516.453369	19646.992188
0.000000	2517.771973	19676.859375
0.000000	2519.090576	19556.265625
0.000000	2520.409180	19528.832031
0.000000	2521.727783	19684.873047
0.000000	2523.046387	19519.074219
0.000000	2524.364990	19572.761719
0.000000	2525.683594	19542.177734
0.000000	2527.002197	19609.919922
0.000000	2528.320801	19618.617188
0.000000	2529.639404	19830.666016
0.000000	2530.958008	19592.271484
0.000000	2532.276611	19652.175781
0.000000	2533.595215	19675.195313
0.000000	2534.913818	19500.822266
0.000000	2536.232422	19482.685547
0.000000	2537.551025	19567.269531
0.000000	2538.869629	19548.353516
0.000000	2540.188232	19436.609375
0.000000	2541.506836	19555.035156
0.000000	2542.825439	19802.443359
0.000000	2544.144043	19419.388672
0.000000	2545.462646	19468.357422
0.000000	2546.781250	19519.570313
0.000000	2548.099854	19356.177734
0.000000	2549.418457	19523.373047
0.000000	2550.737061	19578.607422
0.000000	2552.055664	19440.509766
0.000000	2553.374268	19392.662109
0.000000	2554.692871	19456.550781
0.000000	2556.011475	19536.798828
0.000000	2557.330078	19430.228516
0.000000	2558.648682	19693.328125
0.000000	2559.967285	19534.380859
0.000000	2561.285889	19565.783203
0.000000	2562.604492	19646.687500
0.000000	2563.923096	19453.861328
0.000000	2565.241699	19626.664063
0.000000	2566.560303	19602.513672
0.000000	2567.878906	19494.958984
0.000000	2569.197510	19482.123047
0.000000	2570.516113	19438.845703
0.000000	2571.834717	19465.369141
0.000000	2573.153320	19638.468750
0.000000	2574.471924	19518.767578
0.000000	2575.790527	19845.857422
0.000000	2577.109131	19572.917969
0.000000	2578.427734	19608.773438
0.000000	2579.746338	19627.306641
0.000000	2581.064941	19612.541016
0.000000	2582.383545	19644.378906
0.000000	2583.702148	19563.335938
0.000000	2585.020752	19522.763672
0.000000	2586.339355	19780.912109
0.000000	2587.657959	19802.359375
0.000000	2588.976563	19455.474609
0.000000	2590.295166	19703.275391
0.000000	2591.613770	19743.738281
0.000000	2592.932373	19569.052734
0.000000	2594.250977	19682.445313
0.000000	2595.569580	19772.884766
0.000000	2596.888184	19803.636719
0.000000	2598.206787	19951.343750
0.000000	2599.525391	19920.945313
0.000000	2600.843994	19787.990234
0.000000	2602.162598	19869.949219
0.000000	2603.481201	19886.402344
0.000000	2604.799805	19947.183594
0.000000	2606.118408	19891.750000
0.000000	2607.437012	19869.640625
0.000000	2608.755615	19894.560547
0.000000	2610.074219	19883.591797
0.000000	2611.392822	19959.429688
0.000000	2612.711426	20000.869141
0.000000	2614.030029	19611.664063
0.000000	2615.348633	19929.318359
0.000000	2616.667236	19911.189453
0.000000	2617.985840	20010.058594
0.000000	2619.304443	19965.650391
0.000000	2620.623047	19788.537109
0.000000	2621.941650	19995.914063
0.000000	2623.260254	19987.421875
0.000000	2624.578857	19837.283203
0.000000	2625.897461	19855.419922
0.000000	2627.216064	19874.937500
0.000000	2628.534668	19873.503906
0.000000	2629.853271	19982.269531
0.000000	2631.171875	20125.707031
0.000000	2632.490479	20029.773438
0.000000	2633.809082	19823.955078
0.000000	2635.127686	20000.826172
0.000000	2636.446289	19903.048828
0.000000	2637.764893	20018.175781
0.000000	2639.083496	19915.695313
0.000000	2640.402100	20054.384766
0.000000	2641.720703	20064.175781
0.000000	2643.039307	19977.892578
0.000000	2644.357910	19978.259766
0.000000	2645.676514	19997.904297
0.000000	2646.995117	20008.656250
0.000000	2648.313721	19994.591797
0.000000	2649.632324	19989.705078
0.000000	2650.950928	20325.093750
0.000000	2652.269531	20055.826172
0.000000	2653.588135	20021.548828
0.000000	2654.906738	19886.927734
0.000000	2656.225342	19882.470703
0.000000	2657.543945	19969.646484
0.000000	2658.862549	19842.816406
0.000000	2660.181152	20096.183594
0.000000	2661.499756	19842.859375
0.000000	2662.818359	20097.873047
0.000000	2664.136963	20022.429688
0.000000	2665.455566	20283.220703
0.000000	2666.774170	20165.121094
0.000000	2668.092773	19972.400391
0.000000	2669.411377	20041.841797
0.000000	2670.729980	19964.070313
0.000000	2672.048584	20086.285156
0.000000	2673.367188	20111.759766
0.000000	2674.685791	19923.896484
0.000000	2676.004395	20079.484375
0.000000	2677.322998	20111.509766
0.000000	2678.641602	20104.488281
0.000000	2679.960205	20003.935547
0.000000	2681.278809	19896.447266
0.000000	2682.597412	20087.837891
0.000000	2683.916016	20137.648438
0.000000	2685.234619	19990.384766
0.000000	2686.553223	20205.464844
0.000000	2687.871826	19867.699219
0.000000	2689.190430	20130.257813
0.000000	2690.509033	19999.976563
0.000000	2691.827637	20104.017578
0.000000	2693.146240	20230.945313
0.000000	2694.464844	20057.539063
0.000000	2695.783447	20157.785156
0.000000	2697.102051	20165.289063
0.000000	2698.420654	20012.810547
0.000000	2699.739258	20258.681641
0.000000	2701.057861	20092.357422
0.000000	2702.376465	20085.218750
0.000000	2703.695068	20059.320313
0.000000	2705.013672	20062.894531
0.000000	2706.332275	19931.554688
0.000000	2707.650879	19998.195313
0.000000	2708.969482	20102.837891
0.000000	2710.288086	20028.048828
0.000000	2711.606689	20008.392578
0.000000	2712.925293	20044.474609
0.000000	2714.243896	19951.976563
0.000000	2715.562500	19924.734375
0.000000	2716.881104	20042.443359
0.000000	2718.199707	20069.421875
0.000000	2719.518311	20106.615234
0.000000	2720.836914	20147.125000
0.000000	2722.155518	20259.125000
0.000000	2723.474121	20313.509766
0.000000	2724.792725	20207.236328
0.000000	2726.111328	20088.941406
0.000000	2727.429932	20033.361328
0.000000	2728.748535	20303.666016
0.000000	2730.067139	20351.046875
0.000000	2731.385742	20283.851563
0.000000	2732.704346	20197.568359
0.000000	2734.022949	20091.750000
0.000000	2735.341553	20156.962891
0.000000	2736.660156	20143.263672
0.000000	2737.978760	20148.798828
0.000000	2739.297363	20039.314453
0.000000	2740.615967	20171.162109
0.000000	2741.934570	20240.054688
0.000000	2743.253174	19915.845703
0.000000	2744.571777	20042.390625
0.000000	2745.890381	20071.267578
0.000000	2747.208984	20182.955078
0.000000	2748.527588	20122.152344
0.000000	2749.846191	20054.585938
0.000000	2751.164795	20307.779297
0.000000	2752.483398	20169.656250
0.000000	2753.802002	20098.117188
0.000000	2755.120605	20161.224609
0.000000	2756.439209	20265.058594
0.000000	2757.757813	20268.791016
0.000000	2759.076416	20113.832031
0.000000	2760.395020	20176.976563
0.000000	2761.713623	20253.822266
0.000000	2763.032227	20079.927734
0.000000	2764.350830	20344.886719
0.000000	2765.669434	20307.441406
0.000000	2766.988037	20161.984375
0.000000	2768.306641	20192.554688
0.000000	2769.625244	20039.324219
0.000000	2770.943848	20058.992188
0.000000	2772.262451	19942.998047
0.000000	2773.581055	20027.259766
0.000000	2774.899658	20121.908203
0.000000	2776.218262	19985.648438
0.000000	2777.536865	19822.154297
0.000000	2778.855469	19884.925781
0.000000	2780.174072	20061.064453
0.000000	2781.492676	20141.816406
0.000000	2782.811279	20248.587891
0.000000	2784.129883	20266.515625
0.000000	2785.448486	20264.222656
0.000000	2786.767090	20092.148438
0.000000	2788.085693	20131.226563
0.000000	2789.404297	20109.623047
0.000000	2790.722900	20099.271484
0.000000	2792.041504	20166.359375
0.000000	2793.360107	20086.632813
0.000000	2794.678711	20041.673828
0.000000	2795.997314	20029.515625
0.000000	2797.315918	20070.291016
0.000000	2798.634521	20098.021484
0.000000	2799.953125	20035.308594
0.000000	2801.271729	20142.039063
0.000000	2802.590332	20150.714844
0.000000	2803.908936	20236.746094
0.000000	2805.227539	20160.894531
0.000000	2806.546143	20200.591797
0.000000	2807.864746	20031.373047
0.000000	2809.183350	20215.208984
0.000000	2810.501953	20158.708984
0.000000	2811.820557	20180.730469
0.000000	2813.139160	20253.076172
0.000000	2814.457764	20141.765625
0.000000	2815.776367	20136.154297
0.000000	2817.094971	20264.802734
0.000000	2818.413574	20348.988281
0.000000	2819.732178	20293.201172
0.000000	2821.050781	20191.873047
0.000000	2822.369385	20226.970703
0.000000	2823.687988	20200.976563
0.000000	2825.006592	20268.701172
0.000000	2826.325195	20393.138672
0.000000	2827.643799	20290.722656
0.000000	2828.962402	20419.785156
0.000000	2830.281006	20420.978516
0.000000	2831.599609	20372.314453
0.000000	2832.918213	20172.556641
0.000000	2834.236816	20264.947266
0.000000	2835.555420	20459.378906
0.000000	2836.874023	20224.019531
0.000000	2838.192627	20210.185547
0.000000	2839.511230	20250.986328
0.000000	2840.829834	20325.244141
0.000000	2842.148438	20430.835938
0.000000	2843.467041	20361.873047
0.000000	2844.785645	20366.738281
0.000000	2846.104248	20280.810547
0.000000	2847.422852	20330.101563
0.000000	2848.741455	20409.144531
0.000000	2850.060059	20430.179688
0.000000	2851.378662	20562.669922
0.000000	2852.697266	20465.564453
0.000000	2854.015869	20259.585938
0.000000	2855.334473	20297.570313
0.000000	2856.653076	20395.339844
0.000000	2857.971680	20389.394531
0.000000	2859.290283	20353.601563
0.000000	2860.608887	20321.548828
0.000000	2861.927490	20523.033203
0.000000	2863.246094	20169.628906
0.000000	2864.564697	20248.445313
0.000000	2865.883301	20294.208984
0.000000	2867.201904	20311.037109
0.000000	2868.520508	20313.310547
0.000000	2869.839111	20378.845703
0.000000	2871.157715	20485.031250
0.000000	2872.476318	20336.134766
0.000000	2873.794922	20426.751953
0.000000	2875.113525	20326.410156
0.000000	2876.432129	20500.572266
0.000000	2877.750732	20580.560547
0.000000	2879.069336	20376.566406
0.000000	2880.387939	20576.062500
0.000000	2881.706543	20385.632813
0.000000	2883.025146	20444.906250
0.000000	2884.343750	20425.244141
0.000000	2885.662354	20486.437500
0.000000	2886.980957	20541.531250
0.000000	2888.299561	20476.544922
0.000000	2889.618164	20275.501953
0.000000	2890.936768	20301.189453
0.000000	2892.255371	20553.400391
0.000000	2893.573975	20591.306641
0.000000	2894.892578	20586.240234
0.000000	2896.211182	20538.074219
0.000000	2897.529785	20623.300781
0.000000	2898.848389	20428.541016
0.000000	2900.166992	20599.669922
0.000000	2901.485596	20448.000000
0.000000	2902.804199	20646.988281
0.000000	2904.122803	20706.730469
0.000000	2905.441406	20583.236328
0.000000	2906.760010	20665.531250
0.000000	2908.078613	20420.916016
0.000000	2909.397217	20488.705078
0.000000	2910.715820	20741.179688
0.000000	2912.034424	20703.939453
0.000000	2913.353027	20582.986328
0.000000	2914.671631	20535.322266
0.000000	2915.990234	20495.810547
0.000000	2917.308838	20443.708984
0.000000	2918.627441	20655.390625
0.000000	2919.946045	20584.447266
0.000000	2921.264648	20573.027344
0.000000	2922.583252	20579.734375
0.000000	2923.901855	20488.464844
0.000000	2925.220459	20764.103516
0.000000	2926.539063	20665.675781
0.000000	2927.857666	20378.681641
0.000000	2929.176270	20453.220703
0.000000	2930.494873	20597.669922
0.000000	2931.813477	20558.857422
0.000000	2933.132080	20471.419922
0.000000	2934.450684	20528.683594
0.000000	2935.769287	20491.761719
0.000000	2937.087891	20565.041016
0.000000	2938.406494	20651.820313
0.000000	2939.725098	20642.367188
0.000000	2941.043701	20643.871094
0.000000	2942.362305	20712.669922
0.000000	2943.680908	20770.595703
0.000000	2944.999512	20741.951172
0.000000	2946.318115	20706.591797
0.000000	2947.636719	20814.078125
0.000000	2948.955322	20887.880859
0.000000	2950.273926	20699.810547
0.000000	2951.592529	21142.437500
0.000000	2952.911133	20953.759766
0.000000	2954.229736	20841.373047
0.000000	2955.548340	20697.546875
0.000000	2956.866943	20688.564453
0.000000	2958.185547	20942.441406
0.000000	2959.504150	20840.375000
0.000000	2960.822754	20796.181641
0.000000	2962.141357	20886.732422
0.000000	2963.459961	20690.240234
0.000000	2964.778564	20725.318359
0.000000	2966.097168	20796.132813
0.000000	2967.415771	20717.423828
0.000000	2968.734375	20723.009766
0.000000	2970.052979	20605.892578
0.000000	2971.371582	20640.996094
0.000000	2972.690186	20501.787109
0.000000	2974.008789	20595.484375
0.000000	2975.327393	20667.599609
0.000000	2976.645996	20804.599609
0.000000	2977.964600	20710.974609
0.000000	2979.283203	20743.484375
0.000000	2980.601807	20729.433594
0.000000	2981.920410	20757.470703
0.000000	2983.239014	20815.828125
0.000000	2984.557617	20720.640625
0.000000	2985.876221	20864.218750
0.000000	2987.194824	20866.078125
0.000000	2988.513428	20826.119141
0.000000	2989.832031	20786.521484
0.000000	2991.150635	20882.636719
0.000000	2992.469238	20846.810547
0.000000	2993.787842	20928.722656
0.000000	2995.106445	20783.716797
0.000000	2996.425049	20779.726563
0.000000	2997.743652	20652.425781
0.000000	2999.062256	20877.847656
0.000000	3000.380859	20940.759766
