#DatasetIndex		#Wave		#Intensity
0.000000	699.292969	30394.341797
0.000000	700.611694	30617.345703
0.000000	701.930420	30614.234375
0.000000	703.249146	30662.791016
0.000000	704.567871	30802.843750
0.000000	705.886597	30928.513672
0.000000	707.205322	30901.691406
0.000000	708.524048	30694.255859
0.000000	709.842773	31030.919922
0.000000	711.161499	30942.816406
0.000000	712.480225	30980.173828
0.000000	713.798950	31054.763672
0.000000	715.117676	31070.246094
0.000000	716.436401	31103.935547
0.000000	717.755127	31311.492188
0.000000	719.073853	31220.644531
0.000000	720.392578	31283.789063
0.000000	721.711304	31414.828125
0.000000	723.030029	31494.498047
0.000000	724.348755	31547.607422
0.000000	725.667480	31637.601563
0.000000	726.986206	31733.837891
0.000000	728.304932	31741.712891
0.000000	729.623657	31686.720703
0.000000	730.942383	31702.810547
0.000000	732.261108	31734.496094
0.000000	733.579834	31672.123047
0.000000	734.898560	31567.488281
0.000000	736.217285	31612.587891
0.000000	737.536011	31759.214844
0.000000	738.854736	31912.781250
0.000000	740.173462	31887.708984
0.000000	741.492188	31793.128906
0.000000	742.810913	31898.343750
0.000000	744.129639	32041.953125
0.000000	745.448364	31943.835938
0.000000	746.767090	31920.642578
0.000000	748.085815	31921.470703
0.000000	749.404541	31981.263672
0.000000	750.723267	32013.453125
0.000000	752.041992	32035.859375
0.000000	753.360718	32107.855469
0.000000	754.679443	32179.806641
0.000000	755.998169	32084.666016
0.000000	757.316895	31934.871094
0.000000	758.635620	32054.382813
0.000000	759.954346	32137.697266
0.000000	761.273071	32059.164063
0.000000	762.591797	32065.644531
0.000000	763.910522	32109.558594
0.000000	765.229248	32034.162109
0.000000	766.547974	32319.785156
0.000000	767.866699	32128.310547
0.000000	769.185425	32129.343750
0.000000	770.504150	32345.607422
0.000000	771.822876	32312.154297
0.000000	773.141602	32202.662109
0.000000	774.460327	32357.691406
0.000000	775.779053	32629.796875
0.000000	777.097778	32393.330078
0.000000	778.416504	32424.726563
0.000000	779.735229	32604.591797
0.000000	781.053955	32550.109375
0.000000	782.372681	32495.636719
0.000000	783.691406	32585.250000
0.000000	785.010132	32658.652344
0.000000	786.328857	32521.976563
0.000000	787.647583	32637.427734
0.000000	788.966309	32723.958984
0.000000	790.285034	32803.562500
0.000000	791.603760	33000.621094
0.000000	792.922485	33153.878906
0.000000	794.241211	33162.976563
0.000000	795.559937	33184.496094
0.000000	796.878662	33402.250000
0.000000	798.197388	33225.265625
0.000000	799.516113	33195.292969
0.000000	800.834839	33257.226563
0.000000	802.153564	33399.187500
0.000000	803.472290	33425.949219
0.000000	804.791016	33389.886719
0.000000	806.109741	33660.003906
0.000000	807.428467	33574.617188
0.000000	808.747192	33558.902344
0.000000	810.065918	33704.750000
0.000000	811.384644	33799.929688
0.000000	812.703369	33726.070313
0.000000	814.022095	33678.062500
0.000000	815.340820	33827.660156
0.000000	816.659546	33909.179688
0.000000	817.978271	33665.011719
0.000000	819.296997	33827.082031
0.000000	820.615723	33893.578125
0.000000	821.934448	34122.238281
0.000000	823.253174	34072.578125
0.000000	824.571899	33877.031250
0.000000	825.890625	33972.515625
0.000000	827.209351	33963.003906
0.000000	828.528076	34211.453125
0.000000	829.846802	33933.386719
0.000000	831.165527	34053.675781
0.000000	832.484253	34114.398438
0.000000	833.802979	34209.378906
0.000000	835.121704	34265.164063
0.000000	836.440430	34031.308594
0.000000	837.759155	33809.230469
0.000000	839.077881	34066.988281
0.000000	840.396606	34113.937500
0.000000	841.715332	34263.613281
0.000000	843.034058	34457.976563
0.000000	844.352783	34324.648438
0.000000	845.671509	34006.562500
0.000000	846.990234	34031.628906
0.000000	848.308960	34326.929688
0.000000	849.627686	34059.093750
0.000000	850.946411	34372.210938
0.000000	852.265137	34404.312500
0.000000	853.583862	34316.957031
0.000000	854.902588	34261.031250
0.000000	856.221313	34271.781250
0.000000	857.540039	34277.957031
0.000000	858.858765	34196.875000
0.000000	860.177490	34454.550781
0.000000	861.496216	34550.683594
0.000000	862.814941	34574.195313
0.000000	864.133667	34705.718750
0.000000	865.452393	34809.250000
0.000000	866.771118	34801.964844
0.000000	868.089844	34716.207031
0.000000	869.408569	34598.679688
0.000000	870.727295	34909.687500
0.000000	872.046021	35104.246094
0.000000	873.364746	34934.894531
0.000000	874.683472	34878.234375
0.000000	876.002197	35073.921875
0.000000	877.320923	35206.937500
0.000000	878.639648	35079.218750
0.000000	879.958374	35014.777344
0.000000	881.277100	35083.312500
0.000000	882.595825	35134.386719
0.000000	883.914551	35039.023438
0.000000	885.233276	35094.257813
0.000000	886.552002	35327.246094
0.000000	887.870728	35451.214844
0.000000	889.189453	35421.636719
0.000000	890.508179	35500.582031
0.000000	891.826904	35432.644531
0.000000	893.145630	35417.777344
0.000000	894.464355	35539.925781
0.000000	895.783081	35445.027344
0.000000	897.101807	35554.972656
0.000000	898.420532	35599.359375
0.000000	899.739258	35558.218750
0.000000	901.057983	35598.648438
0.000000	902.376709	35321.375000
0.000000	903.695435	35838.234375
0.000000	905.014160	35838.750000
0.000000	906.332886	35698.082031
0.000000	907.651611	35694.062500
0.000000	908.970337	35719.472656
0.000000	910.289063	35915.105469
0.000000	911.607788	36182.082031
0.000000	912.926514	35989.253906
0.000000	914.245239	35736.148438
0.000000	915.563965	35972.351563
0.000000	916.882690	36186.250000
0.000000	918.201416	36322.496094
0.000000	919.520142	36299.750000
0.000000	920.838867	36213.988281
0.000000	922.157593	36274.398438
0.000000	923.476318	36529.140625
0.000000	924.795044	36648.332031
0.000000	926.113770	36343.230469
0.000000	927.432495	36380.191406
0.000000	928.751221	36462.304688
0.000000	930.069946	36402.308594
0.000000	931.388672	36293.195313
0.000000	932.707397	36342.855469
0.000000	934.026123	36464.257813
0.000000	935.344849	36425.769531
0.000000	936.663574	36655.785156
0.000000	937.982300	36692.890625
0.000000	939.301025	36600.636719
0.000000	940.619751	36651.828125
0.000000	941.938477	36468.289063
0.000000	943.257202	36398.484375
0.000000	944.575928	36479.062500
0.000000	945.894653	36495.875000
0.000000	947.213379	36450.570313
0.000000	948.532104	36076.007813
0.000000	949.850830	36588.859375
0.000000	951.169556	36719.992188
0.000000	952.488281	36564.875000
0.000000	953.807007	36620.664063
0.000000	955.125732	36880.578125
0.000000	956.444458	36969.265625
0.000000	957.763184	36772.144531
0.000000	959.081909	36691.851563
0.000000	960.400635	36548.886719
0.000000	961.719360	36768.351563
0.000000	963.038086	37020.117188
0.000000	964.356812	36901.667969
0.000000	965.675537	36671.136719
0.000000	966.994263	36778.148438
0.000000	968.312988	37015.480469
0.000000	969.631714	36972.042969
0.000000	970.950439	36951.273438
0.000000	972.269165	36815.078125
0.000000	973.587891	37032.472656
0.000000	974.906616	37404.527344
0.000000	976.225342	37268.621094
0.000000	977.544067	37503.234375
0.000000	978.862793	37511.625000
0.000000	980.181519	37243.441406
0.000000	981.500244	37333.171875
0.000000	982.818970	37475.875000
0.000000	984.137695	37575.703125
0.000000	985.456421	37777.273438
0.000000	986.775146	37687.105469
0.000000	988.093872	37544.023438
0.000000	989.412598	37651.535156
0.000000	990.731323	37736.554688
0.000000	992.050049	37832.367188
0.000000	993.368774	38031.921875
0.000000	994.687500	37978.222656
0.000000	996.006226	38096.082031
0.000000	997.324951	38254.562500
0.000000	998.643677	37758.664063
0.000000	999.962402	37823.640625
0.000000	1001.281128	38105.195313
0.000000	1002.599854	38365.531250
0.000000	1003.918579	38357.816406
0.000000	1005.237305	38126.523438
0.000000	1006.556030	38109.503906
0.000000	1007.874756	38350.476563
0.000000	1009.193481	38492.789063
0.000000	1010.512207	38416.453125
0.000000	1011.830933	38523.238281
0.000000	1013.149658	38470.136719
0.000000	1014.468384	38484.644531
0.000000	1015.787109	38584.445313
0.000000	1017.105835	38591.265625
0.000000	1018.424561	38556.324219
0.000000	1019.743286	38790.156250
0.000000	1021.062012	38709.140625
0.000000	1022.380737	38712.398438
0.000000	1023.699463	38635.984375
0.000000	1025.018188	38760.605469
0.000000	1026.336914	38664.371094
0.000000	1027.655640	38700.144531
0.000000	1028.974365	38777.847656
0.000000	1030.293091	38630.160156
0.000000	1031.611816	38619.449219
0.000000	1032.930542	38697.449219
0.000000	1034.249268	38817.796875
0.000000	1035.567993	38806.195313
0.000000	1036.886719	38962.789063
0.000000	1038.205444	38878.628906
0.000000	1039.524170	38869.480469
0.000000	1040.842896	38784.078125
0.000000	1042.161621	38696.503906
0.000000	1043.480347	38873.562500
0.000000	1044.799072	38849.363281
0.000000	1046.117798	38738.039063
0.000000	1047.436523	38718.386719
0.000000	1048.755249	38659.539063
0.000000	1050.073975	38586.132813
0.000000	1051.392700	38697.878906
0.000000	1052.711426	38816.355469
0.000000	1054.030151	38950.066406
0.000000	1055.348877	38952.976563
0.000000	1056.667603	38709.699219
0.000000	1057.986328	38971.378906
0.000000	1059.305054	39010.792969
0.000000	1060.623779	39386.320313
0.000000	1061.942505	39055.781250
0.000000	1063.261230	38830.597656
0.000000	1064.579956	38996.679688
0.000000	1065.898682	39235.421875
0.000000	1067.217407	39262.257813
0.000000	1068.536133	39175.281250
0.000000	1069.854858	39240.242188
0.000000	1071.173584	39418.691406
0.000000	1072.492310	39426.761719
0.000000	1073.811035	39543.812500
0.000000	1075.129761	39361.343750
0.000000	1076.448486	39492.785156
0.000000	1077.767212	39530.402344
0.000000	1079.085938	39479.984375
0.000000	1080.404663	39522.636719
0.000000	1081.723389	39671.253906
0.000000	1083.042114	39762.707031
0.000000	1084.360840	39684.269531
0.000000	1085.679565	39717.226563
0.000000	1086.998291	39776.101563
0.000000	1088.317017	39700.207031
0.000000	1089.635742	39805.136719
0.000000	1090.954468	39905.320313
0.000000	1092.273193	39890.058594
0.000000	1093.591919	39835.968750
0.000000	1094.910645	39878.621094
0.000000	1096.229370	40011.265625
0.000000	1097.548096	40081.039063
0.000000	1098.866821	40250.792969
0.000000	1100.185547	40399.554688
0.000000	1101.504272	40203.332031
0.000000	1102.822998	40328.367188
0.000000	1104.141724	40354.597656
0.000000	1105.460449	40414.386719
0.000000	1106.779175	40545.703125
0.000000	1108.097900	40788.562500
0.000000	1109.416626	40943.804688
0.000000	1110.735352	40539.035156
0.000000	1112.054077	40399.492188
0.000000	1113.372803	40656.007813
0.000000	1114.691528	40545.421875
0.000000	1116.010254	40760.492188
0.000000	1117.328979	40772.757813
0.000000	1118.647705	40666.531250
0.000000	1119.966431	40546.468750
0.000000	1121.285156	40602.933594
0.000000	1122.603882	40738.347656
0.000000	1123.922607	40573.652344
0.000000	1125.241333	40362.558594
0.000000	1126.560059	40870.613281
0.000000	1127.878784	40891.324219
0.000000	1129.197510	40764.273438
0.000000	1130.516235	40901.687500
0.000000	1131.834961	40995.511719
0.000000	1133.153687	41018.601563
0.000000	1134.472412	40909.839844
0.000000	1135.791138	40669.863281
0.000000	1137.109863	40607.714844
0.000000	1138.428589	40916.539063
0.000000	1139.747314	40887.273438
0.000000	1141.066040	41095.386719
0.000000	1142.384766	41111.496094
0.000000	1143.703491	40984.421875
0.000000	1145.022217	41016.437500
0.000000	1146.340942	40850.273438
0.000000	1147.659668	40854.175781
0.000000	1148.978394	40963.750000
0.000000	1150.297119	40976.570313
0.000000	1151.615845	41036.660156
0.000000	1152.934570	41169.757813
0.000000	1154.253296	40885.902344
0.000000	1155.572021	41200.871094
0.000000	1156.890747	41351.984375
0.000000	1158.209473	41008.464844
0.000000	1159.528198	41085.203125
0.000000	1160.846924	41026.960938
0.000000	1162.165649	41062.140625
0.000000	1163.484375	41313.542969
0.000000	1164.803101	41459.582031
0.000000	1166.121826	41331.507813
0.000000	1167.440552	41246.980469
0.000000	1168.759277	41337.593750
0.000000	1170.078003	41651.542969
0.000000	1171.396729	41247.574219
0.000000	1172.715454	41568.574219
0.000000	1174.034180	41833.199219
0.000000	1175.352905	41652.144531
0.000000	1176.671631	41438.058594
0.000000	1177.990356	41386.332031
0.000000	1179.309082	41592.484375
0.000000	1180.627808	41804.945313
0.000000	1181.946533	41654.714844
0.000000	1183.265259	41702.570313
0.000000	1184.583984	41423.074219
0.000000	1185.902710	41545.312500
0.000000	1187.221436	41918.105469
0.000000	1188.540161	41779.132813
0.000000	1189.858887	41886.933594
0.000000	1191.177612	42048.429688
0.000000	1192.496338	42084.675781
0.000000	1193.815063	42118.800781
0.000000	1195.133789	42222.062500
0.000000	1196.452515	42226.250000
0.000000	1197.771240	42156.335938
0.000000	1199.089966	42531.257813
0.000000	1200.408691	42317.937500
0.000000	1201.727417	42369.257813
0.000000	1203.046143	42235.714844
0.000000	1204.364868	42157.554688
0.000000	1205.683594	42500.468750
0.000000	1207.002319	42516.285156
0.000000	1208.321045	42400.871094
0.000000	1209.639771	42639.464844
0.000000	1210.958496	42896.035156
0.000000	1212.277222	42713.703125
0.000000	1213.595947	42679.097656
0.000000	1214.914673	42798.457031
0.000000	1216.233398	42563.621094
0.000000	1217.552124	42737.773438
0.000000	1218.870850	42765.250000
0.000000	1220.189575	42848.402344
0.000000	1221.508301	42967.519531
0.000000	1222.827026	42965.031250
0.000000	1224.145752	42994.847656
0.000000	1225.464478	43063.300781
0.000000	1226.783203	43007.488281
0.000000	1228.101929	42871.652344
0.000000	1229.420654	42787.628906
0.000000	1230.739380	42639.105469
0.000000	1232.058105	42841.203125
0.000000	1233.376831	43118.539063
0.000000	1234.695557	43078.371094
0.000000	1236.014282	42857.988281
0.000000	1237.333008	42679.066406
0.000000	1238.651733	42856.464844
0.000000	1239.970459	42826.363281
0.000000	1241.289185	42693.937500
0.000000	1242.607910	42752.812500
0.000000	1243.926636	42751.457031
0.000000	1245.245361	42807.066406
0.000000	1246.564087	43105.671875
0.000000	1247.882813	42975.542969
0.000000	1249.201538	42783.687500
0.000000	1250.520264	43015.226563
0.000000	1251.838989	42974.789063
0.000000	1253.157715	43034.078125
0.000000	1254.476440	43100.589844
0.000000	1255.795166	43151.136719
0.000000	1257.113892	43278.343750
0.000000	1258.432617	43163.945313
0.000000	1259.751343	42945.363281
0.000000	1261.070068	43169.164063
0.000000	1262.388794	42990.238281
0.000000	1263.707520	42754.515625
0.000000	1265.026245	42828.578125
0.000000	1266.344971	42792.136719
0.000000	1267.663696	43317.343750
0.000000	1268.982422	43200.585938
0.000000	1270.301147	43130.644531
0.000000	1271.619873	43251.875000
0.000000	1272.938599	43433.527344
0.000000	1274.257324	43255.695313
0.000000	1275.576050	43108.070313
0.000000	1276.894775	43440.609375
0.000000	1278.213501	43568.031250
0.000000	1279.532227	43439.042969
0.000000	1280.850952	43534.781250
0.000000	1282.169678	43272.132813
0.000000	1283.488403	43441.335938
0.000000	1284.807129	43398.218750
0.000000	1286.125854	43563.511719
0.000000	1287.444580	43390.449219
0.000000	1288.763306	43350.742188
0.000000	1290.082031	43722.207031
0.000000	1291.400757	43851.890625
0.000000	1292.719482	43700.667969
0.000000	1294.038208	43702.371094
0.000000	1295.356934	43740.218750
0.000000	1296.675659	44013.910156
0.000000	1297.994385	44319.730469
0.000000	1299.313110	43820.132813
0.000000	1300.631836	44129.832031
0.000000	1301.950562	44176.523438
0.000000	1303.269287	44228.316406
0.000000	1304.588013	44215.812500
0.000000	1305.906738	44075.398438
0.000000	1307.225464	44106.335938
0.000000	1308.544189	43941.894531
0.000000	1309.862915	43911.847656
0.000000	1311.181641	44291.933594
0.000000	1312.500366	44493.585938
0.000000	1313.819092	44442.550781
0.000000	1315.137817	44536.050781
0.000000	1316.456543	44398.757813
0.000000	1317.775269	44578.519531
0.000000	1319.093994	44272.152344
0.000000	1320.412720	44432.902344
0.000000	1321.731445	44720.324219
0.000000	1323.050171	44475.152344
0.000000	1324.368896	44288.382813
0.000000	1325.687622	44296.308594
0.000000	1327.006348	44286.121094
0.000000	1328.325073	44462.824219
0.000000	1329.643799	44702.781250
0.000000	1330.962524	44640.808594
0.000000	1332.281250	44598.945313
0.000000	1333.599976	44424.363281
0.000000	1334.918701	44492.679688
0.000000	1336.237427	44481.812500
0.000000	1337.556152	44367.828125
0.000000	1338.874878	44614.453125
0.000000	1340.193604	44446.601563
0.000000	1341.512329	44550.234375
0.000000	1342.831055	44505.152344
0.000000	1344.149780	44345.597656
0.000000	1345.468506	44518.046875
0.000000	1346.787231	44685.039063
0.000000	1348.105957	44582.328125
0.000000	1349.424683	44477.523438
0.000000	1350.743408	44414.152344
0.000000	1352.062134	44376.019531
0.000000	1353.380859	44182.789063
0.000000	1354.699585	44497.957031
0.000000	1356.018311	44599.343750
0.000000	1357.337036	44456.488281
0.000000	1358.655762	44776.953125
0.000000	1359.974487	44456.070313
0.000000	1361.293213	44648.746094
0.000000	1362.611938	44458.722656
0.000000	1363.930664	44422.222656
0.000000	1365.249390	44336.007813
0.000000	1366.568115	44581.691406
0.000000	1367.886841	44865.406250
0.000000	1369.205566	44493.085938
0.000000	1370.524292	44508.113281
0.000000	1371.843018	44885.839844
0.000000	1373.161743	45046.457031
0.000000	1374.480469	44683.605469
0.000000	1375.799194	44860.113281
0.000000	1377.117920	44876.796875
0.000000	1378.436646	44737.679688
0.000000	1379.755371	44761.898438
0.000000	1381.074097	44819.781250
0.000000	1382.392822	44888.242188
0.000000	1383.711548	44956.125000
0.000000	1385.030273	45009.230469
0.000000	1386.348999	44982.707031
0.000000	1387.667725	44905.804688
0.000000	1388.986450	45030.210938
0.000000	1390.305176	45399.085938
0.000000	1391.623901	45457.296875
0.000000	1392.942627	45061.066406
0.000000	1394.261353	45313.003906
0.000000	1395.580078	45322.480469
0.000000	1396.898804	45256.824219
0.000000	1398.217529	45348.171875
0.000000	1399.536255	45266.007813
0.000000	1400.854980	45384.824219
0.000000	1402.173706	45661.777344
0.000000	1403.492432	45539.195313
0.000000	1404.811157	45612.960938
0.000000	1406.129883	45839.167969
0.000000	1407.448608	45886.785156
0.000000	1408.767334	45797.523438
0.000000	1410.086060	45771.054688
0.000000	1411.404785	45904.906250
0.000000	1412.723511	46096.878906
0.000000	1414.042236	46131.726563
0.000000	1415.360962	46040.347656
0.000000	1416.679688	46384.777344
0.000000	1417.998413	46313.894531
0.000000	1419.317139	46176.378906
0.000000	1420.635864	46288.914063
0.000000	1421.954590	46380.101563
0.000000	1423.273315	46201.472656
0.000000	1424.592041	46201.710938
0.000000	1425.910767	46360.933594
0.000000	1427.229492	46434.570313
0.000000	1428.548218	46336.234375
0.000000	1429.866943	46316.503906
0.000000	1431.185669	46523.617188
0.000000	1432.504395	46553.925781
0.000000	1433.823120	46453.906250
0.000000	1435.141846	46872.109375
0.000000	1436.460571	46597.546875
0.000000	1437.779297	46514.035156
0.000000	1439.098022	46409.191406
0.000000	1440.416748	46420.351563
0.000000	1441.735474	46511.996094
0.000000	1443.054199	46433.953125
0.000000	1444.372925	46576.785156
0.000000	1445.691650	46386.921875
0.000000	1447.010376	46712.570313
0.000000	1448.329102	46670.257813
0.000000	1449.647827	46714.394531
0.000000	1450.966553	46605.867188
0.000000	1452.285278	46486.199219
0.000000	1453.604004	46559.707031
0.000000	1454.922729	46739.167969
0.000000	1456.241455	46917.273438
0.000000	1457.560181	46725.207031
0.000000	1458.878906	46802.914063
0.000000	1460.197632	46884.136719
0.000000	1461.516357	46635.132813
0.000000	1462.835083	46698.734375
0.000000	1464.153809	46759.121094
0.000000	1465.472534	46258.621094
0.000000	1466.791260	46883.371094
0.000000	1468.109985	47063.468750
0.000000	1469.428711	46791.250000
0.000000	1470.747437	46784.582031
0.000000	1472.066162	46768.839844
0.000000	1473.384888	46683.375000
0.000000	1474.703613	46883.496094
0.000000	1476.022339	46954.343750
0.000000	1477.341064	46853.171875
0.000000	1478.659790	46779.546875
0.000000	1479.978516	46677.773438
0.000000	1481.297241	46910.035156
0.000000	1482.615967	47238.667969
0.000000	1483.934692	47099.019531
0.000000	1485.253418	47061.921875
0.000000	1486.572144	46545.074219
0.000000	1487.890869	46635.339844
0.000000	1489.209595	46742.078125
0.000000	1490.528320	47042.863281
0.000000	1491.847046	46995.277344
0.000000	1493.165771	46967.152344
0.000000	1494.484497	46965.605469
0.000000	1495.803223	46909.601563
0.000000	1497.121948	47183.039063
0.000000	1498.440674	47217.691406
0.000000	1499.759399	47144.640625
0.000000	1501.078125	47237.117188
0.000000	1502.396851	47380.300781
0.000000	1503.715576	47254.707031
0.000000	1505.034302	47094.542969
0.000000	1506.353027	47296.375000
0.000000	1507.671753	47384.718750
0.000000	1508.990479	47445.539063
0.000000	1510.309204	47778.894531
0.000000	1511.627930	47522.027344
0.000000	1512.946655	47525.660156
0.000000	1514.265381	47478.082031
0.000000	1515.584106	47846.363281
0.000000	1516.902832	47551.554688
0.000000	1518.221558	47681.101563
0.000000	1519.540283	47904.050781
0.000000	1520.859009	47919.828125
0.000000	1522.177734	47793.601563
0.000000	1523.496460	47861.625000
0.000000	1524.815186	47962.628906
0.000000	1526.133911	48050.035156
0.000000	1527.452637	48171.625000
0.000000	1528.771362	48206.531250
0.000000	1530.090088	48062.210938
0.000000	1531.408813	48056.609375
0.000000	1532.727539	48375.570313
0.000000	1534.046265	48451.753906
0.000000	1535.364990	48192.859375
0.000000	1536.683716	48329.855469
0.000000	1538.002441	48102.902344
0.000000	1539.321167	48284.550781
0.000000	1540.639893	48340.472656
0.000000	1541.958618	48549.929688
0.000000	1543.277344	48284.058594
0.000000	1544.596069	48733.199219
0.000000	1545.914795	48381.472656
0.000000	1547.233521	48433.800781
0.000000	1548.552246	48609.429688
0.000000	1549.870972	48424.601563
0.000000	1551.189697	48608.871094
0.000000	1552.508423	48514.726563
0.000000	1553.827148	48392.683594
0.000000	1555.145874	48555.703125
0.000000	1556.464600	48731.746094
0.000000	1557.783325	48685.867188
0.000000	1559.102051	48549.980469
0.000000	1560.420776	48734.066406
0.000000	1561.739502	48747.546875
0.000000	1563.058228	48441.226563
0.000000	1564.376953	48721.617188
0.000000	1565.695679	48613.304688
0.000000	1567.014404	48439.363281
0.000000	1568.333130	48451.097656
0.000000	1569.651855	48522.355469
0.000000	1570.970581	48637.039063
0.000000	1572.289307	48738.902344
0.000000	1573.608032	48617.164063
0.000000	1574.926758	48750.933594
0.000000	1576.245483	49013.769531
0.000000	1577.564209	48583.707031
0.000000	1578.882935	48503.050781
0.000000	1580.201660	48322.175781
0.000000	1581.520386	48565.839844
0.000000	1582.839111	48715.023438
0.000000	1584.157837	48465.242188
0.000000	1585.476563	48618.089844
0.000000	1586.795288	48668.031250
0.000000	1588.114014	48543.406250
0.000000	1589.432739	48569.058594
0.000000	1590.751465	48683.562500
0.000000	1592.070190	48885.667969
0.000000	1593.388916	48860.179688
0.000000	1594.707642	48692.730469
0.000000	1596.026367	48952.699219
0.000000	1597.345093	48918.156250
0.000000	1598.663818	48566.246094
0.000000	1599.982544	48770.195313
0.000000	1601.301270	49342.894531
0.000000	1602.619995	49085.945313
0.000000	1603.938721	49043.824219
0.000000	1605.257446	49421.503906
0.000000	1606.576172	49161.390625
0.000000	1607.894897	49173.230469
0.000000	1609.213623	49135.859375
0.000000	1610.532349	49196.660156
0.000000	1611.851074	49306.839844
0.000000	1613.169800	48970.281250
0.000000	1614.488525	49389.304688
0.000000	1615.807251	49346.015625
0.000000	1617.125977	49554.210938
0.000000	1618.444702	49592.796875
0.000000	1619.763428	49715.101563
0.000000	1621.082153	49565.921875
0.000000	1622.400879	49505.574219
0.000000	1623.719604	49718.191406
0.000000	1625.038330	49787.457031
0.000000	1626.357056	49726.902344
0.000000	1627.675781	49839.886719
0.000000	1628.994507	50040.878906
0.000000	1630.313232	49904.421875
0.000000	1631.631958	49708.679688
0.000000	1632.950684	49876.507813
0.000000	1634.269409	49827.371094
0.000000	1635.588135	50072.996094
0.000000	1636.906860	50024.187500
0.000000	1638.225586	50072.187500
0.000000	1639.544312	50295.800781
0.000000	1640.863037	50498.652344
0.000000	1642.181763	50241.148438
0.000000	1643.500488	50424.921875
0.000000	1644.819214	50808.687500
0.000000	1646.137939	50325.765625
0.000000	1647.456665	50386.324219
0.000000	1648.775391	50742.988281
0.000000	1650.094116	50173.289063
0.000000	1651.412842	50521.214844
0.000000	1652.731567	50583.554688
0.000000	1654.050293	50476.710938
0.000000	1655.369019	50652.324219
0.000000	1656.687744	50682.386719
0.000000	1658.006470	50530.996094
0.000000	1659.325195	50677.734375
0.000000	1660.643921	50669.292969
0.000000	1661.962646	50769.722656
0.000000	1663.281372	50886.933594
0.000000	1664.600098	50881.417969
0.000000	1665.918823	50813.238281
0.000000	1667.237549	50916.000000
0.000000	1668.556274	50928.800781
0.000000	1669.875000	50740.785156
0.000000	1671.193726	50692.285156
0.000000	1672.512451	50658.910156
0.000000	1673.831177	50659.691406
0.000000	1675.149902	50788.687500
0.000000	1676.468628	50811.019531
0.000000	1677.787354	50806.972656
0.000000	1679.106079	50819.164063
0.000000	1680.424805	50592.144531
0.000000	1681.743530	50511.378906
0.000000	1683.062256	50572.183594
0.000000	1684.380981	50862.343750
0.000000	1685.699707	50745.558594
0.000000	1687.018433	50764.332031
0.000000	1688.337158	50683.562500
0.000000	1689.655884	50726.945313
0.000000	1690.974609	50597.382813
0.000000	1692.293335	50187.363281
0.000000	1693.612061	50785.253906
0.000000	1694.930786	50523.976563
0.000000	1696.249512	50688.023438
0.000000	1697.568237	50435.652344
0.000000	1698.886963	50722.523438
0.000000	1700.205688	50582.457031
0.000000	1701.524414	50458.132813
0.000000	1702.843140	50559.074219
0.000000	1704.161865	50344.410156
0.000000	1705.480591	50746.453125
0.000000	1706.799316	50728.832031
0.000000	1708.118042	50677.335938
0.000000	1709.436768	50882.515625
0.000000	1710.755493	51063.378906
0.000000	1712.074219	50943.917969
0.000000	1713.392944	50790.843750
0.000000	1714.711670	50687.046875
0.000000	1716.030396	50630.613281
0.000000	1717.349121	50716.406250
0.000000	1718.667847	50818.527344
0.000000	1719.986572	50839.667969
0.000000	1721.305298	50853.359375
0.000000	1722.624023	50831.468750
0.000000	1723.942749	50758.414063
0.000000	1725.261475	50683.621094
0.000000	1726.580200	50756.921875
0.000000	1727.898926	50983.773438
0.000000	1729.217651	50906.457031
0.000000	1730.536377	51190.898438
0.000000	1731.855103	51189.531250
0.000000	1733.173828	51427.800781
0.000000	1734.492554	51508.636719
0.000000	1735.811279	51272.960938
0.000000	1737.130005	50779.746094
0.000000	1738.448730	51166.027344
0.000000	1739.767456	51138.515625
0.000000	1741.086182	51221.488281
0.000000	1742.404907	51400.175781
0.000000	1743.723633	51305.156250
0.000000	1745.042358	51251.296875
0.000000	1746.361084	51140.488281
0.000000	1747.679810	51677.785156
0.000000	1748.998535	51533.398438
0.000000	1750.317261	51505.078125
0.000000	1751.635986	51292.652344
0.000000	1752.954712	51876.550781
0.000000	1754.273438	51817.511719
0.000000	1755.592163	51893.777344
0.000000	1756.910889	51937.589844
0.000000	1758.229614	51900.203125
0.000000	1759.548340	51842.964844
0.000000	1760.867065	52203.453125
0.000000	1762.185791	52026.828125
0.000000	1763.504517	51950.964844
0.000000	1764.823242	52065.015625
0.000000	1766.141968	51721.683594
0.000000	1767.460693	52138.710938
0.000000	1768.779419	52046.292969
0.000000	1770.098145	51958.492188
0.000000	1771.416870	51861.339844
0.000000	1772.735596	51933.152344
0.000000	1774.054321	51792.804688
0.000000	1775.373047	52002.988281
0.000000	1776.691772	52117.257813
0.000000	1778.010498	51946.222656
0.000000	1779.329224	51842.089844
0.000000	1780.647949	51700.574219
0.000000	1781.966675	51796.730469
0.000000	1783.285400	51946.472656
0.000000	1784.604126	51788.605469
0.000000	1785.922852	51843.750000
0.000000	1787.241577	52034.203125
0.000000	1788.560303	52027.390625
0.000000	1789.879028	51854.593750
0.000000	1791.197754	51837.417969
0.000000	1792.516479	51964.492188
0.000000	1793.835205	51896.589844
0.000000	1795.153931	51786.074219
0.000000	1796.472656	51754.246094
0.000000	1797.791382	51965.597656
0.000000	1799.110107	52031.230469
0.000000	1800.428833	51932.917969
0.000000	1801.747559	51857.851563
0.000000	1803.066284	51752.621094
0.000000	1804.385010	51779.300781
0.000000	1805.703735	51828.078125
0.000000	1807.022461	52028.730469
0.000000	1808.341187	52018.238281
0.000000	1809.659912	51967.417969
0.000000	1810.978638	51773.125000
0.000000	1812.297363	51805.917969
0.000000	1813.616089	51960.957031
0.000000	1814.934814	51724.324219
0.000000	1816.253540	51656.324219
0.000000	1817.572266	51696.339844
0.000000	1818.890991	51980.226563
0.000000	1820.209717	52047.492188
0.000000	1821.528442	51809.312500
0.000000	1822.847168	51899.714844
0.000000	1824.165894	51759.472656
0.000000	1825.484619	51433.921875
0.000000	1826.803345	51936.628906
0.000000	1828.122070	51565.312500
0.000000	1829.440796	51775.503906
0.000000	1830.759521	51819.613281
0.000000	1832.078247	51912.039063
0.000000	1833.396973	51664.644531
0.000000	1834.715698	51582.972656
0.000000	1836.034424	52135.535156
0.000000	1837.353149	51855.582031
0.000000	1838.671875	51746.183594
0.000000	1839.990601	51800.152344
0.000000	1841.309326	51451.800781
0.000000	1842.628052	51860.562500
0.000000	1843.946777	52163.734375
0.000000	1845.265503	52147.113281
0.000000	1846.584229	52061.718750
0.000000	1847.902954	51913.445313
0.000000	1849.221680	51926.921875
0.000000	1850.540405	51904.964844
0.000000	1851.859131	52189.132813
0.000000	1853.177856	52478.183594
0.000000	1854.496582	52167.703125
0.000000	1855.815308	52264.855469
0.000000	1857.134033	52571.816406
0.000000	1858.452759	52281.605469
0.000000	1859.771484	52451.667969
0.000000	1861.090210	52080.187500
0.000000	1862.408936	52676.933594
0.000000	1863.727661	52624.058594
0.000000	1865.046387	52495.902344
0.000000	1866.365112	52587.093750
0.000000	1867.683838	52859.828125
0.000000	1869.002563	52587.792969
0.000000	1870.321289	52795.558594
0.000000	1871.640015	52789.328125
0.000000	1872.958740	52625.968750
0.000000	1874.277466	53038.488281
0.000000	1875.596191	52750.562500
0.000000	1876.914917	52656.316406
0.000000	1878.233643	53133.472656
0.000000	1879.552368	53286.464844
0.000000	1880.871094	52848.503906
0.000000	1882.189819	52982.375000
0.000000	1883.508545	52945.308594
0.000000	1884.827271	53308.574219
0.000000	1886.145996	53480.980469
0.000000	1887.464722	52896.640625
0.000000	1888.783447	53093.566406
0.000000	1890.102173	53353.589844
0.000000	1891.420898	53231.343750
0.000000	1892.739624	52924.765625
0.000000	1894.058350	53146.632813
0.000000	1895.377075	53311.949219
0.000000	1896.695801	53080.750000
0.000000	1898.014526	53126.921875
0.000000	1899.333252	53206.019531
0.000000	1900.651978	52799.542969
0.000000	1901.970703	53279.984375
0.000000	1903.289429	53244.457031
0.000000	1904.608154	53327.023438
0.000000	1905.926880	53406.375000
0.000000	1907.245605	53527.738281
0.000000	1908.564331	53392.566406
0.000000	1909.883057	53316.800781
0.000000	1911.201782	53265.632813
0.000000	1912.520508	53124.433594
0.000000	1913.839233	53056.710938
0.000000	1915.157959	53303.347656
0.000000	1916.476685	53185.207031
0.000000	1917.795410	53466.867188
0.000000	1919.114136	52965.257813
0.000000	1920.432861	53078.085938
0.000000	1921.751587	53198.285156
0.000000	1923.070313	53049.207031
0.000000	1924.389038	53201.734375
0.000000	1925.707764	53136.867188
0.000000	1927.026489	53047.300781
0.000000	1928.345215	53054.417969
0.000000	1929.663940	53083.996094
0.000000	1930.982666	53073.550781
0.000000	1932.301392	52871.898438
0.000000	1933.620117	53545.925781
0.000000	1934.938843	53058.050781
0.000000	1936.257568	53264.496094
0.000000	1937.576294	53188.085938
0.000000	1938.895020	53269.355469
0.000000	1940.213745	53183.046875
0.000000	1941.532471	53355.535156
0.000000	1942.851196	53534.562500
0.000000	1944.169922	53652.871094
0.000000	1945.488647	53409.273438
0.000000	1946.807373	53137.445313
0.000000	1948.126099	53225.050781
0.000000	1949.444824	53404.199219
0.000000	1950.763550	53220.976563
0.000000	1952.082275	53128.933594
0.000000	1953.401001	53519.242188
0.000000	1954.719727	53498.562500
0.000000	1956.038452	53674.054688
0.000000	1957.357178	53776.515625
0.000000	1958.675903	53668.894531
0.000000	1959.994629	53450.222656
0.000000	1961.313354	53714.585938
0.000000	1962.632080	53745.960938
0.000000	1963.950806	53455.425781
0.000000	1965.269531	53482.589844
0.000000	1966.588257	53686.652344
0.000000	1967.906982	53402.035156
0.000000	1969.225708	53759.164063
0.000000	1970.544434	54039.710938
0.000000	1971.863159	53557.375000
0.000000	1973.181885	53550.355469
0.000000	1974.500610	53950.289063
0.000000	1975.819336	54167.234375
0.000000	1977.138062	53863.968750
0.000000	1978.456787	53886.320313
0.000000	1979.775513	53978.296875
0.000000	1981.094238	54381.695313
0.000000	1982.412964	54382.593750
0.000000	1983.731689	54232.445313
0.000000	1985.050415	53912.562500
0.000000	1986.369141	53870.710938
0.000000	1987.687866	54463.421875
0.000000	1989.006592	54552.062500
0.000000	1990.325317	54432.992188
0.000000	1991.644043	54279.089844
0.000000	1992.962769	54470.464844
0.000000	1994.281494	54498.820313
0.000000	1995.600220	54551.722656
0.000000	1996.918945	54819.640625
0.000000	1998.237671	54698.355469
0.000000	1999.556396	54482.335938
0.000000	2000.875122	54601.648438
0.000000	2002.193848	54794.675781
0.000000	2003.512573	54853.230469
0.000000	2004.831299	54717.519531
0.000000	2006.150024	54624.632813
0.000000	2007.468750	54556.464844
0.000000	2008.787476	54638.449219
0.000000	2010.106201	54708.359375
0.000000	2011.424927	54603.480469
0.000000	2012.743652	54923.246094
0.000000	2014.062378	55220.746094
0.000000	2015.381104	55099.429688
0.000000	2016.699829	54976.921875
0.000000	2018.018555	54955.078125
0.000000	2019.337280	55023.476563
0.000000	2020.656006	55080.683594
0.000000	2021.974731	55145.152344
0.000000	2023.293457	55081.410156
0.000000	2024.612183	55410.074219
0.000000	2025.930908	55045.019531
0.000000	2027.249634	55097.457031
0.000000	2028.568359	54881.906250
0.000000	2029.887085	54876.875000
0.000000	2031.205811	55141.667969
0.000000	2032.524536	55148.285156
0.000000	2033.843262	55331.265625
0.000000	2035.161987	55366.742188
0.000000	2036.480713	55641.765625
0.000000	2037.799438	55670.621094
0.000000	2039.118164	55286.437500
0.000000	2040.436890	55138.835938
0.000000	2041.755615	55217.937500
0.000000	2043.074341	55283.414063
0.000000	2044.393066	55314.417969
0.000000	2045.711792	55194.867188
0.000000	2047.030518	55364.074219
0.000000	2048.349121	55351.925781
0.000000	2049.667725	54917.988281
0.000000	2050.986328	55152.785156
0.000000	2052.304932	54913.632813
0.000000	2053.623535	54784.664063
0.000000	2054.942139	55160.992188
0.000000	2056.260742	55290.128906
0.000000	2057.579346	55055.890625
0.000000	2058.897949	54959.507813
0.000000	2060.216553	55008.183594
0.000000	2061.535156	55082.058594
0.000000	2062.853760	55280.152344
0.000000	2064.172363	55265.433594
0.000000	2065.490967	55316.632813
0.000000	2066.809570	55150.808594
0.000000	2068.128174	55297.656250
0.000000	2069.446777	55384.906250
0.000000	2070.765381	55388.199219
0.000000	2072.083984	55490.613281
0.000000	2073.402588	55420.781250
0.000000	2074.721191	55282.648438
0.000000	2076.039795	55392.500000
0.000000	2077.358398	55335.968750
0.000000	2078.677002	55259.003906
0.000000	2079.995605	55167.703125
0.000000	2081.314209	54894.367188
0.000000	2082.632813	55375.203125
0.000000	2083.951416	55692.523438
0.000000	2085.270020	55467.421875
0.000000	2086.588623	55623.671875
0.000000	2087.907227	55556.597656
0.000000	2089.225830	55570.640625
0.000000	2090.544434	55748.777344
0.000000	2091.863037	55594.816406
0.000000	2093.181641	55633.675781
0.000000	2094.500244	55827.824219
0.000000	2095.818848	55507.644531
0.000000	2097.137451	55525.070313
0.000000	2098.456055	55816.703125
0.000000	2099.774658	56030.558594
0.000000	2101.093262	55788.453125
0.000000	2102.411865	55831.332031
0.000000	2103.730469	55345.058594
0.000000	2105.049072	55709.722656
0.000000	2106.367676	56157.843750
0.000000	2107.686279	56013.449219
0.000000	2109.004883	55891.195313
0.000000	2110.323486	56012.480469
0.000000	2111.642090	56116.515625
0.000000	2112.960693	55958.531250
0.000000	2114.279297	56012.437500
0.000000	2115.597900	56146.500000
0.000000	2116.916504	56182.167969
0.000000	2118.235107	56068.449219
0.000000	2119.553711	56165.339844
0.000000	2120.872314	56288.960938
0.000000	2122.190918	56241.863281
0.000000	2123.509521	56207.589844
0.000000	2124.828125	56185.109375
0.000000	2126.146729	56088.546875
0.000000	2127.465332	56354.851563
0.000000	2128.783936	56476.683594
0.000000	2130.102539	56646.089844
0.000000	2131.421143	56343.609375
0.000000	2132.739746	56362.972656
0.000000	2134.058350	56678.609375
0.000000	2135.376953	56482.714844
0.000000	2136.695557	56517.980469
0.000000	2138.014160	56127.617188
0.000000	2139.332764	56719.722656
0.000000	2140.651367	56545.808594
0.000000	2141.969971	56549.410156
0.000000	2143.288574	56942.367188
0.000000	2144.607178	56747.808594
0.000000	2145.925781	56608.789063
0.000000	2147.244385	56610.125000
0.000000	2148.562988	56405.152344
0.000000	2149.881592	56525.589844
0.000000	2151.200195	56408.296875
0.000000	2152.518799	56653.429688
0.000000	2153.837402	56698.722656
0.000000	2155.156006	56936.632813
0.000000	2156.474609	56873.722656
0.000000	2157.793213	56716.566406
0.000000	2159.111816	56743.625000
0.000000	2160.430420	56741.929688
0.000000	2161.749023	56553.214844
0.000000	2163.067627	56649.050781
0.000000	2164.386230	57005.195313
0.000000	2165.704834	56905.550781
0.000000	2167.023438	56786.140625
0.000000	2168.342041	56542.519531
0.000000	2169.660645	56596.949219
0.000000	2170.979248	56574.687500
0.000000	2172.297852	56696.152344
0.000000	2173.616455	56477.535156
0.000000	2174.935059	56559.875000
0.000000	2176.253662	56691.757813
0.000000	2177.572266	56884.699219
0.000000	2178.890869	56624.687500
0.000000	2180.209473	56727.355469
0.000000	2181.528076	56860.644531
0.000000	2182.846680	56586.660156
0.000000	2184.165283	56848.015625
0.000000	2185.483887	56662.843750
0.000000	2186.802490	56794.503906
0.000000	2188.121094	56856.898438
0.000000	2189.439697	56753.246094
0.000000	2190.758301	56656.480469
0.000000	2192.076904	56642.835938
0.000000	2193.395508	56601.539063
0.000000	2194.714111	57001.664063
0.000000	2196.032715	57082.824219
0.000000	2197.351318	56921.921875
0.000000	2198.669922	57009.421875
0.000000	2199.988525	57104.980469
0.000000	2201.307129	56920.464844
0.000000	2202.625732	56850.316406
0.000000	2203.944336	57091.386719
0.000000	2205.262939	56918.804688
0.000000	2206.581543	57059.125000
0.000000	2207.900146	57407.089844
0.000000	2209.218750	56798.445313
0.000000	2210.537354	56778.414063
0.000000	2211.855957	57121.859375
0.000000	2213.174561	57406.132813
0.000000	2214.493164	57822.093750
0.000000	2215.811768	57096.906250
0.000000	2217.130371	57305.183594
0.000000	2218.448975	57463.265625
0.000000	2219.767578	57399.812500
0.000000	2221.086182	57428.210938
0.000000	2222.404785	57389.476563
0.000000	2223.723389	57343.429688
0.000000	2225.041992	57485.847656
0.000000	2226.360596	57380.425781
0.000000	2227.679199	57203.097656
0.000000	2228.997803	57362.437500
0.000000	2230.316406	57813.570313
0.000000	2231.635010	57505.492188
0.000000	2232.953613	57297.273438
0.000000	2234.272217	57262.972656
0.000000	2235.590820	57609.679688
0.000000	2236.909424	57556.644531
0.000000	2238.228027	57507.656250
0.000000	2239.546631	57560.523438
0.000000	2240.865234	57198.117188
0.000000	2242.183838	57765.144531
0.000000	2243.502441	57951.992188
0.000000	2244.821045	57575.488281
0.000000	2246.139648	57841.253906
0.000000	2247.458252	57926.261719
0.000000	2248.776855	57483.277344
0.000000	2250.095459	57490.453125
0.000000	2251.414063	57439.078125
0.000000	2252.732666	57649.968750
0.000000	2254.051270	58114.929688
0.000000	2255.369873	57976.527344
0.000000	2256.688477	57705.867188
0.000000	2258.007080	57589.199219
0.000000	2259.325684	57707.656250
0.000000	2260.644287	57802.308594
0.000000	2261.962891	57727.167969
0.000000	2263.281494	57643.312500
0.000000	2264.600098	57838.429688
0.000000	2265.918701	57970.570313
0.000000	2267.237305	57767.851563
0.000000	2268.555908	57677.304688
0.000000	2269.874512	57857.750000
0.000000	2271.193115	57982.925781
0.000000	2272.511719	57904.441406
0.000000	2273.830322	58090.042969
0.000000	2275.148926	58128.246094
0.000000	2276.467529	58085.214844
0.000000	2277.786133	57831.289063
0.000000	2279.104736	58078.679688
0.000000	2280.423340	58141.617188
0.000000	2281.741943	58118.425781
0.000000	2283.060547	58124.332031
0.000000	2284.379150	58376.117188
0.000000	2285.697754	57865.289063
0.000000	2287.016357	58121.574219
0.000000	2288.334961	58288.312500
0.000000	2289.653564	57881.003906
0.000000	2290.972168	57986.082031
0.000000	2292.290771	57875.632813
0.000000	2293.609375	58035.140625
0.000000	2294.927979	57952.484375
0.000000	2296.246582	57739.628906
0.000000	2297.565186	58091.800781
0.000000	2298.883789	58007.863281
0.000000	2300.202393	57949.847656
0.000000	2301.520996	57993.691406
0.000000	2302.839600	58090.664063
0.000000	2304.158203	58032.523438
0.000000	2305.476807	58049.390625
0.000000	2306.795410	57851.089844
0.000000	2308.114014	58168.906250
0.000000	2309.432617	58304.390625
0.000000	2310.751221	57933.718750
0.000000	2312.069824	58303.363281
0.000000	2313.388428	58570.085938
0.000000	2314.707031	58503.750000
0.000000	2316.025635	58358.820313
0.000000	2317.344238	58044.187500
0.000000	2318.662842	58371.550781
0.000000	2319.981445	58027.804688
0.000000	2321.300049	58527.835938
0.000000	2322.618652	58778.972656
0.000000	2323.937256	58469.835938
0.000000	2325.255859	58565.484375
0.000000	2326.574463	58630.820313
0.000000	2327.893066	58670.699219
0.000000	2329.211670	58682.039063
0.000000	2330.530273	58721.285156
0.000000	2331.848877	59032.472656
0.000000	2333.167480	58596.375000
0.000000	2334.486084	58896.078125
0.000000	2335.804688	59210.343750
0.000000	2337.123291	58750.832031
0.000000	2338.441895	59030.500000
0.000000	2339.760498	58975.882813
0.000000	2341.079102	59396.800781
0.000000	2342.397705	59082.015625
0.000000	2343.716309	58997.464844
0.000000	2345.034912	59049.097656
0.000000	2346.353516	58896.917969
0.000000	2347.672119	58953.292969
0.000000	2348.990723	59141.371094
0.000000	2350.309326	59246.820313
0.000000	2351.627930	59561.195313
0.000000	2352.946533	59713.753906
0.000000	2354.265137	59423.539063
0.000000	2355.583740	59509.640625
0.000000	2356.902344	59637.601563
0.000000	2358.220947	59279.664063
0.000000	2359.539551	59828.605469
0.000000	2360.858154	59242.335938
0.000000	2362.176758	59586.546875
0.000000	2363.495361	59850.671875
0.000000	2364.813965	59498.574219
0.000000	2366.132568	59794.855469
0.000000	2367.451172	59891.449219
0.000000	2368.769775	59708.175781
0.000000	2370.088379	59622.843750
0.000000	2371.406982	59737.476563
0.000000	2372.725586	59916.812500
0.000000	2374.044189	59840.023438
0.000000	2375.362793	60329.917969
0.000000	2376.681396	60085.039063
0.000000	2378.000000	59555.152344
0.000000	2379.318604	59941.632813
0.000000	2380.637207	60067.476563
0.000000	2381.955811	60148.785156
0.000000	2383.274414	59957.175781
0.000000	2384.593018	59786.582031
0.000000	2385.911621	59717.074219
0.000000	2387.230225	59916.687500
0.000000	2388.548828	60284.160156
0.000000	2389.867432	60468.363281
0.000000	2391.186035	60343.597656
0.000000	2392.504639	59926.671875
0.000000	2393.823242	60094.730469
0.000000	2395.141846	60171.914063
0.000000	2396.460449	60180.640625
0.000000	2397.779053	60051.105469
0.000000	2399.097656	60074.578125
0.000000	2400.416260	60050.156250
0.000000	2401.734863	60179.324219
0.000000	2403.053467	60077.632813
0.000000	2404.372070	60029.019531
0.000000	2405.690674	60083.210938
0.000000	2407.009277	60035.144531
0.000000	2408.327881	60005.875000
0.000000	2409.646484	60259.414063
0.000000	2410.965088	60096.046875
0.000000	2412.283691	60190.304688
0.000000	2413.602295	60135.207031
0.000000	2414.920898	60473.285156
0.000000	2416.239502	60252.589844
0.000000	2417.558105	60310.308594
0.000000	2418.876709	60161.441406
0.000000	2420.195313	60099.492188
0.000000	2421.513916	60406.453125
0.000000	2422.832520	60461.914063
0.000000	2424.151123	60022.460938
0.000000	2425.469727	60163.730469
0.000000	2426.788330	60340.871094
0.000000	2428.106934	60101.429688
0.000000	2429.425537	60296.574219
0.000000	2430.744141	60712.382813
0.000000	2432.062744	60637.679688
0.000000	2433.381348	60538.136719
0.000000	2434.699951	60422.343750
0.000000	2436.018555	60675.386719
0.000000	2437.337158	60186.855469
0.000000	2438.655762	60327.960938
0.000000	2439.974365	60726.625000
0.000000	2441.292969	60900.871094
0.000000	2442.611572	60740.605469
0.000000	2443.930176	60604.386719
0.000000	2445.248779	60416.082031
0.000000	2446.567383	60521.261719
0.000000	2447.885986	61000.441406
0.000000	2449.204590	60906.093750
0.000000	2450.523193	60892.566406
0.000000	2451.841797	60783.164063
0.000000	2453.160400	60589.339844
0.000000	2454.479004	60643.175781
0.000000	2455.797607	60943.679688
0.000000	2457.116211	60806.910156
0.000000	2458.434814	60820.277344
0.000000	2459.753418	60665.644531
0.000000	2461.072021	60977.832031
0.000000	2462.390625	61024.113281
0.000000	2463.709229	61020.000000
0.000000	2465.027832	60945.019531
0.000000	2466.346436	60898.507813
0.000000	2467.665039	61417.000000
0.000000	2468.983643	61593.648438
0.000000	2470.302246	61192.058594
0.000000	2471.620850	61396.195313
0.000000	2472.939453	61424.406250
0.000000	2474.258057	61264.421875
0.000000	2475.576660	61469.488281
0.000000	2476.895264	61228.628906
0.000000	2478.213867	61321.898438
0.000000	2479.532471	61167.589844
0.000000	2480.851074	61361.214844
0.000000	2482.169678	61562.652344
0.000000	2483.488281	61551.445313
0.000000	2484.806885	60593.609375
0.000000	2486.125488	61811.230469
0.000000	2487.444092	61309.527344
0.000000	2488.762695	61718.281250
0.000000	2490.081299	61578.414063
0.000000	2491.399902	61370.175781
0.000000	2492.718506	61667.460938
0.000000	2494.037109	61359.054688
0.000000	2495.355713	61361.785156
0.000000	2496.674316	61425.160156
0.000000	2497.992920	62154.179688
0.000000	2499.311523	61839.320313
0.000000	2500.630127	61669.574219
0.000000	2501.948730	61816.007813
0.000000	2503.267334	61634.886719
0.000000	2504.585938	61308.773438
0.000000	2505.904541	61534.492188
0.000000	2507.223145	61853.707031
0.000000	2508.541748	61722.117188
0.000000	2509.860352	61529.058594
0.000000	2511.178955	61486.421875
0.000000	2512.497559	61648.906250
0.000000	2513.816162	61750.957031
0.000000	2515.134766	61591.500000
0.000000	2516.453369	61857.140625
0.000000	2517.771973	62026.488281
0.000000	2519.090576	61747.500000
0.000000	2520.409180	61754.371094
0.000000	2521.727783	62065.082031
0.000000	2523.046387	62279.574219
0.000000	2524.364990	61830.527344
0.000000	2525.683594	61794.023438
0.000000	2527.002197	61905.269531
0.000000	2528.320801	61656.300781
0.000000	2529.639404	62050.203125
0.000000	2530.958008	61805.445313
0.000000	2532.276611	61701.191406
0.000000	2533.595215	61966.429688
0.000000	2534.913818	61848.636719
0.000000	2536.232422	61575.796875
0.000000	2537.551025	61573.390625
0.000000	2538.869629	61461.546875
0.000000	2540.188232	61415.355469
0.000000	2541.506836	61370.031250
0.000000	2542.825439	61685.117188
0.000000	2544.144043	61434.964844
0.000000	2545.462646	61792.781250
0.000000	2546.781250	61603.097656
0.000000	2548.099854	61626.636719
0.000000	2549.418457	61838.503906
0.000000	2550.737061	61841.078125
0.000000	2552.055664	61807.132813
0.000000	2553.374268	61767.746094
0.000000	2554.692871	61581.167969
0.000000	2556.011475	61653.796875
0.000000	2557.330078	61491.917969
0.000000	2558.648682	61647.664063
0.000000	2559.967285	61588.105469
0.000000	2561.285889	61698.484375
0.000000	2562.604492	61559.792969
0.000000	2563.923096	61698.445313
0.000000	2565.241699	61797.820313
0.000000	2566.560303	61651.789063
0.000000	2567.878906	61811.457031
0.000000	2569.197510	62049.886719
0.000000	2570.516113	61941.781250
0.000000	2571.834717	61589.847656
0.000000	2573.153320	61685.511719
0.000000	2574.471924	61994.085938
0.000000	2575.790527	61856.242188
0.000000	2577.109131	62074.371094
0.000000	2578.427734	62190.566406
0.000000	2579.746338	62108.765625
0.000000	2581.064941	61970.585938
0.000000	2582.383545	62302.539063
0.000000	2583.702148	61966.644531
0.000000	2585.020752	62006.117188
0.000000	2586.339355	62301.546875
0.000000	2587.657959	62219.500000
0.000000	2588.976563	62277.621094
0.000000	2590.295166	62164.093750
0.000000	2591.613770	62262.859375
0.000000	2592.932373	62258.500000
0.000000	2594.250977	62128.949219
0.000000	2595.569580	62298.289063
0.000000	2596.888184	62596.742188
0.000000	2598.206787	62337.699219
0.000000	2599.525391	62390.632813
0.000000	2600.843994	62434.429688
0.000000	2602.162598	62753.273438
0.000000	2603.481201	62363.496094
0.000000	2604.799805	62593.535156
0.000000	2606.118408	62560.085938
0.000000	2607.437012	62601.222656
0.000000	2608.755615	62996.093750
0.000000	2610.074219	62831.683594
0.000000	2611.392822	62805.992188
0.000000	2612.711426	62697.113281
0.000000	2614.030029	62727.867188
0.000000	2615.348633	62373.886719
0.000000	2616.667236	62383.171875
0.000000	2617.985840	62490.636719
0.000000	2619.304443	62878.890625
0.000000	2620.623047	63079.242188
0.000000	2621.941650	63389.953125
0.000000	2623.260254	62967.734375
0.000000	2624.578857	63183.058594
0.000000	2625.897461	63361.785156
0.000000	2627.216064	63469.175781
0.000000	2628.534668	63394.640625
0.000000	2629.853271	63390.886719
0.000000	2631.171875	63350.371094
0.000000	2632.490479	63173.925781
0.000000	2633.809082	63321.562500
0.000000	2635.127686	62957.414063
0.000000	2636.446289	62854.585938
0.000000	2637.764893	63414.691406
0.000000	2639.083496	62860.097656
0.000000	2640.402100	63203.820313
0.000000	2641.720703	62925.292969
0.000000	2643.039307	63345.714844
0.000000	2644.357910	63506.398438
0.000000	2645.676514	63684.179688
0.000000	2646.995117	63448.589844
0.000000	2648.313721	63472.144531
0.000000	2649.632324	63548.707031
0.000000	2650.950928	63343.234375
0.000000	2652.269531	63715.738281
0.000000	2653.588135	63885.812500
0.000000	2654.906738	63471.394531
0.000000	2656.225342	63754.843750
0.000000	2657.543945	63517.886719
0.000000	2658.862549	63262.992188
0.000000	2660.181152	63527.496094
0.000000	2661.499756	63477.519531
0.000000	2662.818359	63498.531250
0.000000	2664.136963	63589.523438
0.000000	2665.455566	63581.601563
0.000000	2666.774170	63934.839844
0.000000	2668.092773	63667.703125
0.000000	2669.411377	63449.457031
0.000000	2670.729980	63450.238281
0.000000	2672.048584	63763.160156
0.000000	2673.367188	63676.343750
0.000000	2674.685791	63715.902344
0.000000	2676.004395	63668.933594
0.000000	2677.322998	63912.074219
0.000000	2678.641602	63828.769531
0.000000	2679.960205	63675.832031
0.000000	2681.278809	63713.507813
0.000000	2682.597412	63621.808594
0.000000	2683.916016	63677.894531
0.000000	2685.234619	63683.304688
0.000000	2686.553223	63398.503906
0.000000	2687.871826	63671.218750
0.000000	2689.190430	63854.453125
0.000000	2690.509033	63379.085938
0.000000	2691.827637	63448.742188
0.000000	2693.146240	63449.292969
0.000000	2694.464844	63647.082031
0.000000	2695.783447	63777.328125
0.000000	2697.102051	63793.375000
0.000000	2698.420654	63919.550781
0.000000	2699.739258	63555.148438
0.000000	2701.057861	63806.847656
0.000000	2702.376465	63697.718750
0.000000	2703.695068	63704.851563
0.000000	2705.013672	63865.785156
0.000000	2706.332275	63673.976563
0.000000	2707.650879	63506.160156
0.000000	2708.969482	63721.632813
0.000000	2710.288086	63557.910156
0.000000	2711.606689	63809.937500
0.000000	2712.925293	64150.367188
0.000000	2714.243896	64077.640625
0.000000	2715.562500	63908.539063
0.000000	2716.881104	63697.574219
0.000000	2718.199707	63975.347656
0.000000	2719.518311	63960.761719
0.000000	2720.836914	63589.968750
0.000000	2722.155518	63624.781250
0.000000	2723.474121	63850.109375
0.000000	2724.792725	63839.839844
0.000000	2726.111328	63985.671875
0.000000	2727.429932	64002.160156
0.000000	2728.748535	63816.613281
0.000000	2730.067139	63597.656250
0.000000	2731.385742	63620.121094
0.000000	2732.704346	63902.226563
0.000000	2734.022949	63489.273438
0.000000	2735.341553	64008.652344
0.000000	2736.660156	63812.570313
0.000000	2737.978760	63555.671875
0.000000	2739.297363	63652.093750
0.000000	2740.615967	64011.437500
0.000000	2741.934570	63933.859375
0.000000	2743.253174	63557.714844
0.000000	2744.571777	63979.210938
0.000000	2745.890381	63947.914063
0.000000	2747.208984	63844.921875
0.000000	2748.527588	63757.031250
0.000000	2749.846191	63673.335938
0.000000	2751.164795	63784.332031
0.000000	2752.483398	63914.566406
0.000000	2753.802002	63763.585938
0.000000	2755.120605	64094.718750
0.000000	2756.439209	63734.820313
0.000000	2757.757813	63747.140625
0.000000	2759.076416	63886.070313
0.000000	2760.395020	63725.257813
0.000000	2761.713623	63635.539063
0.000000	2763.032227	63749.027344
0.000000	2764.350830	63753.058594
0.000000	2765.669434	64094.593750
0.000000	2766.988037	63751.785156
0.000000	2768.306641	63638.660156
0.000000	2769.625244	63779.015625
0.000000	2770.943848	63868.667969
0.000000	2772.262451	63750.843750
0.000000	2773.581055	63858.417969
0.000000	2774.899658	63485.246094
0.000000	2776.218262	63401.480469
0.000000	2777.536865	63934.750000
0.000000	2778.855469	63942.402344
0.000000	2780.174072	63547.734375
0.000000	2781.492676	63514.207031
0.000000	2782.811279	63723.078125
0.000000	2784.129883	63733.226563
0.000000	2785.448486	63829.062500
0.000000	2786.767090	63878.074219
0.000000	2788.085693	64096.738281
0.000000	2789.404297	63874.726563
0.000000	2790.722900	63884.039063
0.000000	2792.041504	63823.082031
0.000000	2793.360107	63540.050781
0.000000	2794.678711	63608.980469
0.000000	2795.997314	64027.234375
0.000000	2797.315918	63818.355469
0.000000	2798.634521	63865.117188
0.000000	2799.953125	63943.683594
0.000000	2801.271729	63892.824219
0.000000	2802.590332	63830.761719
0.000000	2803.908936	64455.132813
0.000000	2805.227539	64003.878906
0.000000	2806.546143	63729.050781
0.000000	2807.864746	63569.378906
0.000000	2809.183350	63671.777344
0.000000	2810.501953	63866.101563
0.000000	2811.820557	64189.488281
0.000000	2813.139160	64229.351563
0.000000	2814.457764	63974.152344
0.000000	2815.776367	64214.734375
0.000000	2817.094971	64158.992188
0.000000	2818.413574	63897.250000
0.000000	2819.732178	64083.191406
0.000000	2821.050781	63937.027344
0.000000	2822.369385	63795.265625
0.000000	2823.687988	64115.300781
0.000000	2825.006592	64332.332031
0.000000	2826.325195	64239.445313
0.000000	2827.643799	63935.785156
0.000000	2828.962402	64054.386719
0.000000	2830.281006	64047.921875
0.000000	2831.599609	64228.167969
0.000000	2832.918213	64381.859375
0.000000	2834.236816	63971.550781
0.000000	2835.555420	64139.621094
0.000000	2836.874023	63878.496094
0.000000	2838.192627	63990.027344
0.000000	2839.511230	63947.843750
0.000000	2840.829834	64199.988281
0.000000	2842.148438	64656.207031
0.000000	2843.467041	64361.925781
0.000000	2844.785645	64307.218750
0.000000	2846.104248	64368.945313
0.000000	2847.422852	64396.609375
0.000000	2848.741455	64591.144531
0.000000	2850.060059	64761.441406
0.000000	2851.378662	64320.714844
0.000000	2852.697266	64582.683594
0.000000	2854.015869	64517.019531
0.000000	2855.334473	64464.785156
0.000000	2856.653076	64570.945313
0.000000	2857.971680	64491.644531
0.000000	2859.290283	64740.457031
0.000000	2860.608887	64368.871094
0.000000	2861.927490	64536.105469
0.000000	2863.246094	64319.734375
0.000000	2864.564697	64342.527344
0.000000	2865.883301	64471.972656
0.000000	2867.201904	64537.175781
0.000000	2868.520508	64579.718750
0.000000	2869.839111	64484.476563
0.000000	2871.157715	64412.820313
0.000000	2872.476318	64454.597656
0.000000	2873.794922	64777.527344
0.000000	2875.113525	64725.636719
0.000000	2876.432129	64307.222656
0.000000	2877.750732	64508.742188
0.000000	2879.069336	64694.597656
0.000000	2880.387939	64694.039063
0.000000	2881.706543	64761.378906
0.000000	2883.025146	64508.054688
0.000000	2884.343750	64764.957031
0.000000	2885.662354	64672.378906
0.000000	2886.980957	65074.511719
0.000000	2888.299561	64720.707031
0.000000	2889.618164	64924.964844
0.000000	2890.936768	65253.363281
0.000000	2892.255371	64752.656250
0.000000	2893.573975	64899.382813
0.000000	2894.892578	64889.542969
0.000000	2896.211182	64896.777344
0.000000	2897.529785	64905.640625
0.000000	2898.848389	64809.289063
0.000000	2900.166992	65080.679688
0.000000	2901.485596	64671.371094
0.000000	2902.804199	64963.429688
0.000000	2904.122803	65350.554688
0.000000	2905.441406	65142.527344
0.000000	2906.760010	64805.718750
0.000000	2908.078613	64555.820313
0.000000	2909.397217	65058.976563
0.000000	2910.715820	64899.945313
0.000000	2912.034424	64781.648438
0.000000	2913.353027	64977.957031
0.000000	2914.671631	65089.667969
0.000000	2915.990234	65036.476563
0.000000	2917.308838	64990.234375
0.000000	2918.627441	65107.363281
0.000000	2919.946045	65253.984375
0.000000	2921.264648	64672.925781
0.000000	2922.583252	64764.218750
0.000000	2923.901855	65207.652344
0.000000	2925.220459	65166.148438
0.000000	2926.539063	64501.410156
0.000000	2927.857666	64525.097656
0.000000	2929.176270	64909.734375
0.000000	2930.494873	64780.261719
0.000000	2931.813477	65058.601563
0.000000	2933.132080	64722.085938
0.000000	2934.450684	64853.515625
0.000000	2935.769287	64879.812500
0.000000	2937.087891	64941.429688
0.000000	2938.406494	64748.796875
0.000000	2939.725098	64885.980469
0.000000	2941.043701	65064.289063
0.000000	2942.362305	64817.285156
0.000000	2943.680908	65164.078125
0.000000	2944.999512	65239.023438
0.000000	2946.318115	65041.992188
0.000000	2947.636719	64694.421875
0.000000	2948.955322	64925.632813
0.000000	2950.273926	65118.726563
0.000000	2951.592529	64995.835938
0.000000	2952.911133	65133.050781
0.000000	2954.229736	65604.273438
0.000000	2955.548340	65030.093750
0.000000	2956.866943	65060.765625
0.000000	2958.185547	65020.296875
0.000000	2959.504150	65418.410156
0.000000	2960.822754	65370.656250
0.000000	2962.141357	65577.796875
0.000000	2963.459961	65415.113281
0.000000	2964.778564	65315.171875
0.000000	2966.097168	65094.734375
0.000000	2967.415771	65307.417969
0.000000	2968.734375	64790.675781
0.000000	2970.052979	64964.097656
0.000000	2971.371582	65241.796875
0.000000	2972.690186	65555.289063
0.000000	2974.008789	65815.343750
0.000000	2975.327393	65371.378906
0.000000	2976.645996	65164.601563
0.000000	2977.964600	65304.843750
0.000000	2979.283203	65394.523438
0.000000	2980.601807	65258.500000
0.000000	2981.920410	65264.445313
0.000000	2983.239014	65315.582031
0.000000	2984.557617	65369.238281
0.000000	2985.876221	65401.679688
0.000000	2987.194824	65106.449219
0.000000	2988.513428	65183.738281
0.000000	2989.832031	65147.414063
0.000000	2991.150635	65282.093750
0.000000	2992.469238	65312.347656
0.000000	2993.787842	65153.375000
0.000000	2995.106445	65083.429688
0.000000	2996.425049	65225.070313
0.000000	2997.743652	65177.558594
0.000000	2999.062256	65236.425781
0.000000	3000.380859	65246.160156
