699.292969 32042.964844
700.611694 32357.132813
701.930420 32225.783203
703.249146 32366.587891
704.567871 32621.636719
705.886597 32647.189453
707.205322 32452.056641
708.524048 32683.873047
709.842773 32838.089844
711.161499 32918.093750
712.480225 33169.234375
713.798950 33101.289063
715.117676 32956.535156
716.436401 33151.910156
717.755127 33136.527344
719.073853 33485.644531
720.392578 33357.531250
721.711304 33411.875000
723.030029 33590.515625
724.348755 33666.980469
725.667480 33618.281250
726.986206 33711.539063
728.304932 33688.652344
729.623657 33862.386719
730.942383 33857.851563
732.261108 33929.781250
733.579834 34032.550781
734.898560 34095.875000
736.217285 34144.765625
737.536011 34001.531250
738.854736 34213.437500
740.173462 34209.832031
741.492188 34375.324219
742.810913 34349.800781
744.129639 34272.429688
745.448364 34453.480469
746.767090 34328.148438
748.085815 34445.617188
749.404541 34574.800781
750.723267 34676.613281
752.041992 34599.687500
753.360718 34458.480469
754.679443 34440.054688
755.998169 34575.699219
757.316895 34795.804688
758.635620 34873.882813
759.954346 34931.484375
761.273071 34654.175781
762.591797 34642.269531
763.910522 34936.804688
765.229248 34934.855469
766.547974 34616.757813
767.866699 35186.511719
769.185425 35062.550781
770.504150 34995.761719
771.822876 35024.988281
773.141602 35060.269531
774.460327 35118.570313
775.779053 35341.652344
777.097778 35680.503906
778.416504 35436.105469
779.735229 35441.957031
781.053955 35549.386719
782.372681 35753.269531
783.691406 35903.605469
785.010132 35936.859375
786.328857 36229.066406
787.647583 36141.777344
788.966309 36172.062500
790.285034 36160.187500
791.603760 36247.226563
792.922485 36358.890625
794.241211 36403.488281
795.559937 36474.402344
796.878662 36826.597656
798.197388 36631.500000
799.516113 36627.402344
800.834839 36714.199219
802.153564 36948.976563
803.472290 37018.656250
804.791016 36938.089844
806.109741 37296.843750
807.428467 37386.390625
808.747192 37340.917969
810.065918 37405.949219
811.384644 37422.890625
812.703369 37468.324219
814.022095 37453.187500
815.340820 37351.187500
816.659546 37504.539063
817.978271 37771.679688
819.296997 37933.875000
820.615723 38033.027344
821.934448 38120.464844
823.253174 38030.710938
824.571899 37949.636719
825.890625 38122.070313
827.209351 38152.476563
828.528076 37901.117188
829.846802 38327.308594
831.165527 38249.601563
832.484253 38199.093750
833.802979 38170.167969
835.121704 38169.707031
836.440430 38300.832031
837.759155 38317.546875
839.077881 38428.105469
840.396606 38477.906250
841.715332 38326.062500
843.034058 38225.031250
844.352783 38368.667969
845.671509 38576.324219
846.990234 38638.878906
848.308960 38925.699219
849.627686 39006.097656
850.946411 38855.191406
852.265137 38776.035156
853.583862 38660.753906
854.902588 38774.871094
856.221313 38992.128906
857.540039 39006.386719
858.858765 39138.031250
860.177490 38940.238281
861.496216 38999.582031
862.814941 39287.691406
864.133667 39255.710938
865.452393 39286.683594
866.771118 39577.128906
868.089844 39729.667969
869.408569 39360.871094
870.727295 39647.796875
872.046021 39907.816406
873.364746 39911.273438
874.683472 39924.550781
876.002197 39865.250000
877.320923 39961.257813
878.639648 40226.304688
879.958374 40120.843750
881.277100 40213.992188
882.595825 40352.359375
883.914551 40459.074219
885.233276 40481.492188
886.552002 40574.312500
887.870728 40707.355469
889.189453 40764.425781
890.508179 40805.425781
891.826904 41162.906250
893.145630 41203.324219
894.464355 41309.636719
895.783081 41271.097656
897.101807 41510.085938
898.420532 41508.964844
899.739258 41284.089844
901.057983 41449.773438
902.376709 41825.023438
903.695435 41677.085938
905.014160 41513.187500
906.332886 41481.843750
907.651611 41529.480469
908.970337 41669.062500
910.289063 41729.242188
911.607788 41690.402344
912.926514 41814.246094
914.245239 41896.179688
915.563965 42183.601563
916.882690 42168.855469
918.201416 42239.222656
919.520142 42298.042969
920.838867 42324.800781
922.157593 42208.257813
923.476318 41964.984375
924.795044 42069.832031
926.113770 42320.984375
927.432495 42256.109375
928.751221 42401.882813
930.069946 42390.957031
931.388672 42467.300781
932.707397 42570.328125
934.026123 42538.324219
935.344849 42521.468750
936.663574 42795.785156
937.982300 42859.128906
939.301025 42919.710938
940.619751 42944.195313
941.938477 42533.460938
943.257202 42514.820313
944.575928 42822.398438
945.894653 42930.195313
947.213379 43092.996094
948.532104 43226.011719
949.850830 42808.007813
951.169556 42973.078125
952.488281 43272.132813
953.807007 43350.226563
955.125732 43319.406250
956.444458 43382.992188
957.763184 43461.074219
959.081909 43316.070313
960.400635 43452.203125
961.719360 43288.980469
963.038086 43467.882813
964.356812 43414.148438
965.675537 43568.808594
966.994263 43605.644531
968.312988 43564.726563
969.631714 43735.964844
970.950439 43696.507813
972.269165 43872.281250
973.587891 44126.812500
974.906616 44196.179688
976.225342 44312.281250
977.544067 44453.820313
978.862793 44431.058594
980.181519 44385.699219
981.500244 44470.257813
982.818970 44405.582031
984.137695 44700.671875
985.456421 44768.070313
986.775146 44986.789063
988.093872 45051.214844
989.412598 44941.289063
990.731323 44958.222656
992.050049 45191.179688
993.368774 45371.699219
994.687500 45316.703125
996.006226 45535.707031
997.324951 45469.210938
998.643677 45241.515625
999.962402 45387.636719
1001.281128 45659.183594
1002.599854 45741.703125
1003.918579 45785.695313
1005.237305 45806.109375
1006.556030 45659.152344
1007.874756 46310.203125
1009.193481 46084.867188
1010.512207 46286.691406
1011.830933 46349.082031
1013.149658 46402.597656
1014.468384 46471.011719
1015.787109 46539.300781
1017.105835 46389.425781
1018.424561 46073.714844
1019.743286 46373.042969
1021.062012 46415.738281
1022.380737 46702.320313
1023.699463 46476.187500
1025.018188 46444.089844
1026.336914 46600.394531
1027.655640 46558.917969
1028.974365 46552.773438
1030.293091 46839.824219
1031.611816 46964.726563
1032.930542 46989.894531
1034.249268 47005.136719
1035.567993 47251.007813
1036.886719 46970.500000
1038.205444 47008.339844
1039.524170 46972.984375
1040.842896 46786.277344
1042.161621 46753.632813
1043.480347 46984.660156
1044.799072 47180.917969
1046.117798 46984.835938
1047.436523 46955.835938
1048.755249 47439.031250
1050.073975 47310.046875
1051.392700 47464.613281
1052.711426 47626.042969
1054.030151 47723.742188
1055.348877 47733.457031
1056.667603 47615.019531
1057.986328 48108.839844
1059.305054 47820.445313
1060.623779 47806.796875
1061.942505 47867.183594
1063.261230 47968.664063
1064.579956 48168.554688
1065.898682 48254.191406
1067.217407 48152.226563
1068.536133 48042.707031
1069.854858 48082.953125
1071.173584 48211.074219
1072.492310 48732.722656
1073.811035 48424.179688
1075.129761 48763.886719
1076.448486 48673.480469
1077.767212 48844.785156
1079.085938 49014.441406
1080.404663 48902.484375
1081.723389 48949.511719
1083.042114 49403.316406
1084.360840 49238.632813
1085.679565 49330.433594
1086.998291 49333.863281
1088.317017 49730.523438
1089.635742 49531.156250
1090.954468 49609.722656
1092.273193 49983.718750
1093.591919 50142.179688
1094.910645 50066.621094
1096.229370 50190.132813
1097.548096 50410.285156
1098.866821 50454.992188
1100.185547 50682.699219
1101.504272 50367.035156
1102.822998 50330.929688
1104.141724 50453.605469
1105.460449 50608.296875
1106.779175 50482.082031
1108.097900 50288.980469
1109.416626 50505.738281
1110.735352 50843.976563
1112.054077 50747.722656
1113.372803 50807.250000
1114.691528 50818.445313
1116.010254 51079.117188
1117.328979 51115.832031
1118.647705 51015.121094
1119.966431 51066.718750
1121.285156 51153.015625
1122.603882 51048.613281
1123.922607 50923.640625
1125.241333 51021.027344
1126.560059 50919.601563
1127.878784 51242.472656
1129.197510 51368.429688
1130.516235 51278.738281
1131.834961 51495.492188
1133.153687 51557.742188
1134.472412 51604.609375
1135.791138 51643.843750
1137.109863 51564.945313
1138.428589 51686.125000
1139.747314 51708.796875
1141.066040 51582.671875
1142.384766 51608.308594
1143.703491 51792.781250
1145.022217 51868.843750
1146.340942 51591.015625
1147.659668 51727.589844
1148.978394 51888.203125
1150.297119 52021.441406
1151.615845 52247.886719
1152.934570 51798.007813
1154.253296 51968.808594
1155.572021 52077.980469
1156.890747 52362.679688
1158.209473 52169.796875
1159.528198 52044.328125
1160.846924 51825.906250
1162.165649 52093.421875
1163.484375 52542.375000
1164.803101 52602.433594
1166.121826 52421.281250
1167.440552 52538.292969
1168.759277 52960.207031
1170.078003 52735.058594
1171.396729 52362.820313
1172.715454 52800.949219
1174.034180 52980.449219
1175.352905 53188.992188
1176.671631 53040.339844
1177.990356 52950.824219
1179.309082 53233.320313
1180.627808 53456.429688
1181.946533 53227.464844
1183.265259 52976.261719
1184.583984 53401.050781
1185.902710 53547.398438
1187.221436 53459.535156
1188.540161 53668.289063
1189.858887 53679.964844
1191.177612 53643.652344
1192.496338 53872.949219
1193.815063 54068.699219
1195.133789 54048.378906
1196.452515 54104.699219
1197.771240 54176.898438
1199.089966 53978.281250
1200.408691 54464.378906
1201.727417 54680.871094
1203.046143 54600.628906
1204.364868 54499.019531
1205.683594 54356.515625
1207.002319 54549.296875
1208.321045 54683.941406
1209.639771 54760.210938
1210.958496 54949.605469
1212.277222 54955.304688
1213.595947 54871.417969
1214.914673 55061.398438
1216.233398 54799.941406
1217.552124 55296.269531
1218.870850 55112.812500
1220.189575 54996.285156
1221.508301 55054.257813
1222.827026 55018.640625
1224.145752 55179.734375
1225.464478 55352.601563
1226.783203 55305.488281
1228.101929 55401.765625
1229.420654 55577.207031
1230.739380 55552.128906
1232.058105 55444.031250
1233.376831 55581.117188
1234.695557 55750.445313
1236.014282 55306.746094
1237.333008 55477.218750
1238.651733 55734.375000
1239.970459 55647.761719
1241.289185 55554.226563
1242.607910 55612.355469
1243.926636 55571.742188
1245.245361 55581.804688
1246.564087 55764.804688
1247.882813 55346.363281
1249.201538 55941.152344
1250.520264 55736.433594
1251.838989 55885.949219
1253.157715 55775.386719
1254.476440 55994.132813
1255.795166 55970.855469
1257.113892 56018.191406
1258.432617 55992.425781
1259.751343 55799.570313
1261.070068 56145.824219
1262.388794 56057.429688
1263.707520 55868.687500
1265.026245 55939.988281
1266.344971 56170.140625
1267.663696 55831.277344
1268.982422 55910.980469
1270.301147 56381.617188
1271.619873 56431.488281
1272.938599 56041.898438
1274.257324 56095.929688
1275.576050 56496.117188
1276.894775 56607.882813
1278.213501 56774.695313
1279.532227 56951.460938
1280.850952 56934.570313
1282.169678 57165.179688
1283.488403 56930.000000
1284.807129 57146.250000
1286.125854 57132.023438
1287.444580 57230.492188
1288.763306 57267.964844
1290.082031 56968.585938
1291.400757 56976.492188
1292.719482 57356.042969
1294.038208 57540.058594
1295.356934 57525.496094
1296.675659 57386.378906
1297.994385 57644.839844
1299.313110 57989.898438
1300.631836 58053.179688
1301.950562 58314.589844
1303.269287 58386.148438
1304.588013 58161.570313
1305.906738 58262.570313
1307.225464 58364.003906
1308.544189 58479.449219
1309.862915 58502.835938
1311.181641 58504.886719
1312.500366 58814.359375
1313.819092 59011.187500
1315.137817 58636.750000
1316.456543 58697.414063
1317.775269 58727.609375
1319.093994 58856.671875
1320.412720 58971.925781
1321.731445 58978.914063
1323.050171 58895.082031
1324.368896 59047.902344
1325.687622 59323.707031
1327.006348 59430.390625
1328.325073 59452.835938
1329.643799 59538.121094
1330.962524 59510.593750
1332.281250 59383.382813
1333.599976 59526.628906
1334.918701 59217.949219
1336.237427 59444.898438
1337.556152 59525.316406
1338.874878 59367.402344
1340.193604 59812.363281
1341.512329 59587.179688
1342.831055 59768.843750
1344.149780 59722.472656
1345.468506 59607.910156
1346.787231 59604.773438
1348.105957 59579.160156
1349.424683 59541.464844
1350.743408 59572.273438
1352.062134 59893.050781
1353.380859 60165.394531
1354.699585 59675.152344
1356.018311 59404.820313
1357.337036 59785.792969
1358.655762 60159.980469
1359.974487 60011.175781
1361.293213 59997.222656
1362.611938 60130.453125
1363.930664 60116.714844
1365.249390 60120.453125
1366.568115 60332.285156
1367.886841 60386.023438
1369.205566 60154.492188
1370.524292 60195.308594
1371.843018 60337.437500
1373.161743 60166.933594
1374.480469 60748.839844
1375.799194 60956.207031
1377.117920 60642.769531
1378.436646 61070.085938
1379.755371 60540.500000
1381.074097 60641.484375
1382.392822 60744.550781
1383.711548 60920.207031
1385.030273 60869.023438
1386.348999 60808.609375
1387.667725 61006.722656
1388.986450 61147.050781
1390.305176 61186.605469
1391.623901 61385.894531
1392.942627 61406.542969
1394.261353 61615.140625
1395.580078 61673.019531
1396.898804 62076.046875
1398.217529 61807.585938
1399.536255 61756.484375
1400.854980 61980.527344
1402.173706 62154.773438
1403.492432 62267.375000
1404.811157 62363.031250
1406.129883 62128.437500
1407.448608 62168.218750
1408.767334 62677.542969
1410.086060 62714.218750
1411.404785 62405.937500
1412.723511 62612.855469
1414.042236 62158.562500
1415.360962 62534.535156
1416.679688 62522.402344
1417.998413 63243.968750
1419.317139 62992.457031
1420.635864 63086.507813
1421.954590 62818.957031
1423.273315 62946.566406
1424.592041 63100.292969
1425.910767 63438.875000
1427.229492 63444.554688
1428.548218 63558.941406
1429.866943 63637.265625
1431.185669 63470.875000
1432.504395 63590.671875
1433.823120 63823.175781
1435.141846 63856.863281
1436.460571 63921.203125
1437.779297 63784.929688
1439.098022 63613.812500
1440.416748 63555.398438
1441.735474 64018.472656
1443.054199 64128.316406
1444.372925 64174.937500
1445.691650 64039.082031
1447.010376 63984.558594
1448.329102 63913.816406
1449.647827 63961.453125
1450.966553 64114.359375
1452.285278 64422.148438
1453.604004 64470.472656
1454.922729 64159.761719
1456.241455 64113.082031
1457.560181 64208.390625
1458.878906 64194.535156
1460.197632 64252.570313
1461.516357 64137.273438
1462.835083 64285.746094
1464.153809 64550.773438
1465.472534 64167.921875
1466.791260 64168.015625
1468.109985 64281.804688
1469.428711 64511.917969
1470.747437 64381.636719
1472.066162 64352.167969
1473.384888 64421.691406
1474.703613 64248.761719
1476.022339 64233.562500
1477.341064 64485.210938
1478.659790 64756.488281
1479.978516 64865.292969
1481.297241 64577.308594
1482.615967 64376.386719
1483.934692 64384.226563
1485.253418 64179.835938
1486.572144 65004.683594
1487.890869 65210.707031
1489.209595 64737.449219
1490.528320 64717.265625
1491.847046 64674.386719
1493.165771 65078.609375
1494.484497 64728.187500
1495.803223 65055.828125
1497.121948 65184.675781
1498.440674 65026.593750
1499.759399 65002.105469
1501.078125 65082.566406
1502.396851 65331.390625
1503.715576 65355.031250
1505.034302 65180.859375
1506.353027 65494.320313
1507.671753 65734.679688
1508.990479 65629.523438
1510.309204 65441.542969
1511.627930 65789.750000
1512.946655 66153.718750
1514.265381 66460.414063
1515.584106 65805.953125
1516.902832 65847.867188
1518.221558 66102.328125
1519.540283 66136.148438
1520.859009 66283.015625
1522.177734 66540.156250
1523.496460 66581.726563
1524.815186 66486.906250
1526.133911 66510.578125
1527.452637 66314.265625
1528.771362 66329.273438
1530.090088 66542.468750
1531.408813 66648.179688
1532.727539 66928.843750
1534.046265 67019.343750
1535.364990 66768.609375
1536.683716 67083.656250
1538.002441 67168.984375
1539.321167 67014.140625
1540.639893 67132.125000
1541.958618 67278.281250
1543.277344 67177.187500
1544.596069 67062.296875
1545.914795 67007.070313
1547.233521 67448.671875
1548.552246 67203.460938
1549.870972 67562.156250
1551.189697 67703.085938
1552.508423 67441.367188
1553.827148 67372.976563
1555.145874 67328.914063
1556.464600 67249.875000
1557.783325 67422.375000
1559.102051 67586.710938
1560.420776 67478.601563
1561.739502 67511.812500
1563.058228 67642.617188
1564.376953 67540.953125
1565.695679 67711.671875
1567.014404 67722.046875
1568.333130 67850.078125
1569.651855 67609.523438
1570.970581 67836.062500
1572.289307 67462.140625
1573.608032 67791.085938
1574.926758 67713.656250
1576.245483 67850.109375
1577.564209 67851.164063
1578.882935 67964.125000
1580.201660 67645.093750
1581.520386 67605.320313
1582.839111 67855.796875
1584.157837 67832.234375
1585.476563 67844.984375
1586.795288 67935.773438
1588.114014 68061.515625
1589.432739 68134.578125
1590.751465 68091.242188
1592.070190 68005.937500
1593.388916 68053.757813
1594.707642 68178.281250
1596.026367 68190.140625
1597.345093 68209.593750
1598.663818 68300.984375
1599.982544 68470.359375
1601.301270 68011.789063
1602.619995 68261.773438
1603.938721 68576.601563
1605.257446 69027.382813
1606.576172 68445.132813
1607.894897 68909.937500
1609.213623 68670.164063
1610.532349 68921.234375
1611.851074 69053.351563
1613.169800 68814.078125
1614.488525 69410.921875
1615.807251 69139.445313
1617.125977 68924.726563
1618.444702 69318.773438
1619.763428 69244.265625
1621.082153 68994.875000
1622.400879 69265.929688
1623.719604 69564.554688
1625.038330 69790.203125
1626.357056 69848.562500
1627.675781 69789.617188
1628.994507 69786.281250
1630.313232 69872.242188
1631.631958 70026.531250
1632.950684 70025.796875
1634.269409 70172.007813
1635.588135 70028.343750
1636.906860 70098.757813
1638.225586 70140.640625
1639.544312 70021.632813
1640.863037 70394.335938
1642.181763 70242.875000
1643.500488 70457.468750
1644.819214 70544.312500
1646.137939 70527.929688
1647.456665 70757.695313
1648.775391 70524.031250
1650.094116 70344.117188
1651.412842 70282.929688
1652.731567 70417.734375
1654.050293 70809.679688
1655.369019 71112.953125
1656.687744 71336.539063
1658.006470 71328.328125
1659.325195 71118.007813
1660.643921 70990.242188
1661.962646 71003.156250
1663.281372 71064.593750
1664.600098 71095.031250
1665.918823 71010.671875
1667.237549 71139.070313
1668.556274 71212.593750
1669.875000 70959.773438
1671.193726 71123.718750
1672.512451 71397.531250
1673.831177 71287.601563
1675.149902 71424.562500
1676.468628 71317.937500
1677.787354 71376.648438
1679.106079 71097.617188
1680.424805 71400.851563
1681.743530 70849.929688
1683.062256 70990.406250
1684.380981 71401.210938
1685.699707 71252.101563
1687.018433 70941.421875
1688.337158 71215.203125
1689.655884 71248.664063
1690.974609 71794.031250
1692.293335 71199.750000
1693.612061 71228.406250
1694.930786 71609.515625
1696.249512 71362.773438
1697.568237 70955.585938
1698.886963 71593.375000
1700.205688 70986.718750
1701.524414 71044.703125
1702.843140 71112.359375
1704.161865 71293.429688
1705.480591 71609.500000
1706.799316 71676.140625
1708.118042 71657.304688
1709.436768 71707.531250
1710.755493 71511.398438
1712.074219 71059.726563
1713.392944 71284.742188
1714.711670 71642.554688
1716.030396 71541.601563
1717.349121 71452.976563
1718.667847 71716.976563
1719.986572 71800.554688
1721.305298 71691.656250
1722.624023 71776.500000
1723.942749 71734.945313
1725.261475 71726.367188
1726.580200 71710.921875
1727.898926 71990.156250
1729.217651 72172.648438
1730.536377 71935.796875
1731.855103 72056.101563
1733.173828 72169.382813
1734.492554 72202.859375
1735.811279 72131.796875
1737.130005 72534.007813
1738.448730 72699.953125
1739.767456 72976.000000
1741.086182 72572.906250
1742.404907 72590.070313
1743.723633 72842.218750
1745.042358 72594.031250
1746.361084 72680.000000
1747.679810 73041.367188
1748.998535 73055.742188
1750.317261 73173.335938
1751.635986 72629.078125
1752.954712 73108.390625
1754.273438 73569.367188
1755.592163 73786.468750
1756.910889 73578.250000
1758.229614 73418.960938
1759.548340 73567.000000
1760.867065 73802.500000
1762.185791 73728.890625
1763.504517 73522.796875
1764.823242 73598.804688
1766.141968 73566.312500
1767.460693 73573.554688
1768.779419 73720.039063
1770.098145 74083.320313
1771.416870 73826.976563
1772.735596 73926.929688
1774.054321 73779.765625
1775.373047 73803.554688
1776.691772 74155.882813
1778.010498 74070.000000
1779.329224 74219.140625
1780.647949 74135.312500
1781.966675 74028.429688
1783.285400 74307.593750
1784.604126 74405.921875
1785.922852 74408.476563
1787.241577 74370.609375
1788.560303 74134.359375
1789.879028 74073.968750
1791.197754 74397.570313
1792.516479 74587.585938
1793.835205 74492.062500
1795.153931 74519.562500
1796.472656 74582.562500
1797.791382 74490.382813
1799.110107 74298.062500
1800.428833 74307.882813
1801.747559 74479.414063
1803.066284 74460.078125
1804.385010 74354.226563
1805.703735 74462.414063
1807.022461 74392.648438
1808.341187 74566.601563
1809.659912 74580.601563
1810.978638 74411.546875
1812.297363 74723.812500
1813.616089 74589.632813
1814.934814 74307.460938
1816.253540 74370.343750
1817.572266 74356.390625
1818.890991 74777.507813
1820.209717 74752.140625
1821.528442 74579.718750
1822.847168 74653.664063
1824.165894 74862.593750
1825.484619 74778.937500
1826.803345 74918.242188
1828.122070 74878.976563
1829.440796 74430.296875
1830.759521 74635.492188
1832.078247 75001.859375
1833.396973 74407.757813
1834.715698 75256.750000
1836.034424 74835.570313
1837.353149 74833.171875
1838.671875 74907.609375
1839.990601 75228.515625
1841.309326 75262.703125
1842.628052 75188.640625
1843.946777 74947.976563
1845.265503 75598.960938
1846.584229 75431.125000
1847.902954 75593.734375
1849.221680 75745.125000
1850.540405 75554.781250
1851.859131 76007.164063
1853.177856 75892.242188
1854.496582 75697.726563
1855.815308 75673.343750
1857.134033 75815.492188
1858.452759 75987.820313
1859.771484 75734.281250
1861.090210 76214.640625
1862.408936 76417.000000
1863.727661 76318.195313
1865.046387 76425.976563
1866.365112 76408.390625
1867.683838 76261.312500
1869.002563 76990.132813
1870.321289 76883.890625
1871.640015 77001.390625
1872.958740 76916.203125
1874.277466 76468.453125
1875.596191 77062.734375
1876.914917 76947.015625
1878.233643 76676.789063
1879.552368 76970.578125
1880.871094 77548.335938
1882.189819 77186.718750
1883.508545 77077.132813
1884.827271 76896.507813
1886.145996 77433.585938
1887.464722 77436.757813
1888.783447 77349.578125
1890.102173 77541.781250
1891.420898 77570.695313
1892.739624 77121.171875
1894.058350 77465.585938
1895.377075 77020.625000
1896.695801 77382.687500
1898.014526 77589.265625
1899.333252 77190.625000
1900.651978 77323.921875
1901.970703 77423.382813
1903.289429 77596.296875
1904.608154 77771.843750
1905.926880 77830.070313
1907.245605 77281.140625
1908.564331 77314.773438
1909.883057 77567.250000
1911.201782 77312.390625
1912.520508 77559.101563
1913.839233 78023.882813
1915.157959 77693.453125
1916.476685 77666.632813
1917.795410 77634.796875
1919.114136 77602.429688
1920.432861 77462.632813
1921.751587 77393.187500
1923.070313 77822.953125
1924.389038 77699.804688
1925.707764 77719.851563
1927.026489 78216.398438
1928.345215 77405.507813
1929.663940 77211.101563
1930.982666 78044.703125
1932.301392 77733.531250
1933.620117 77570.640625
1934.938843 77825.476563
1936.257568 77745.968750
1937.576294 77597.085938
1938.895020 77831.914063
1940.213745 77287.609375
1941.532471 78108.164063
1942.851196 78103.898438
1944.169922 77798.890625
1945.488647 77460.648438
1946.807373 78119.742188
1948.126099 77646.210938
1949.444824 77734.578125
1950.763550 78211.914063
1952.082275 77432.562500
1953.401001 77972.828125
1954.719727 77998.382813
1956.038452 77934.890625
1957.357178 77862.390625
1958.675903 78354.093750
1959.994629 78206.109375
1961.313354 78344.804688
1962.632080 78231.992188
1963.950806 78577.796875
1965.269531 78384.976563
1966.588257 78522.703125
1967.906982 78707.078125
1969.225708 78609.531250
1970.544434 78648.242188
1971.863159 78841.593750
1973.181885 78628.609375
1974.500610 79045.734375
1975.819336 78886.242188
1977.138062 78982.179688
1978.456787 79288.703125
1979.775513 79109.359375
1981.094238 79583.328125
1982.412964 79520.554688
1983.731689 79646.515625
1985.050415 79562.890625
1986.369141 79553.140625
1987.687866 79329.156250
1989.006592 79342.335938
1990.325317 79416.742188
1991.644043 79568.289063
1992.962769 79890.468750
1994.281494 79970.609375
1995.600220 80108.781250
1996.918945 79780.734375
1998.237671 79893.125000
1999.556396 80064.789063
2000.875122 80232.867188
2002.193848 80249.468750
2003.512573 80159.929688
2004.831299 80049.476563
2006.150024 80132.500000
2007.468750 80286.257813
2008.787476 80523.101563
2010.106201 80481.492188
2011.424927 80321.250000
2012.743652 80271.945313
2014.062378 80555.296875
2015.381104 80346.914063
2016.699829 80230.468750
2018.018555 80420.210938
2019.337280 80444.007813
2020.656006 80691.382813
2021.974731 80569.960938
2023.293457 80741.437500
2024.612183 80491.429688
2025.930908 80779.156250
2027.249634 81115.515625
2028.568359 81190.890625
2029.887085 81165.828125
2031.205811 81125.828125
2032.524536 81098.093750
2033.843262 80788.242188
2035.161987 81063.140625
2036.480713 81244.468750
2037.799438 81481.906250
2039.118164 81152.750000
2040.436890 81479.078125
2041.755615 81201.492188
2043.074341 80780.921875
2044.393066 81339.117188
2045.711792 81391.039063
2047.030518 81290.906250
2048.349121 81347.023438
2049.667725 81616.601563
2050.986328 81520.601563
2052.304932 81489.585938
2053.623535 81392.164063
2054.942139 81482.953125
2056.260742 81778.781250
2057.579346 81763.367188
2058.897949 81808.929688
2060.216553 81272.679688
2061.535156 81548.335938
2062.853760 81826.570313
2064.172363 81858.609375
2065.490967 81710.101563
2066.809570 81520.093750
2068.128174 81721.898438
2069.446777 81965.234375
2070.765381 82123.656250
2072.083984 81992.664063
2073.402588 81707.968750
2074.721191 81949.679688
2076.039795 82070.015625
2077.358398 82041.117188
2078.677002 82257.421875
2079.995605 82565.687500
2081.314209 82397.625000
2082.632813 82348.039063
2083.951416 82322.023438
2085.270020 82444.882813
2086.588623 82560.914063
2087.907227 82726.210938
2089.225830 82509.960938
2090.544434 82927.531250
2091.863037 82592.984375
2093.181641 82674.945313
2094.500244 82907.687500
2095.818848 83070.593750
2097.137451 82853.523438
2098.456055 82918.281250
2099.774658 83513.906250
2101.093262 83331.601563
2102.411865 83467.718750
2103.730469 84000.078125
2105.049072 83422.210938
2106.367676 83851.085938
2107.686279 83788.414063
2109.004883 83719.507813
2110.323486 83761.085938
2111.642090 83963.976563
2112.960693 83920.710938
2114.279297 83924.757813
2115.597900 83997.085938
2116.916504 83971.343750
2118.235107 84303.882813
2119.553711 84248.210938
2120.872314 84315.484375
2122.190918 84594.039063
2123.509521 84746.812500
2124.828125 84417.671875
2126.146729 84272.226563
2127.465332 84401.140625
2128.783936 84401.757813
2130.102539 84443.273438
2131.421143 84707.039063
2132.739746 84687.921875
2134.058350 84724.367188
2135.376953 84823.085938
2136.695557 84912.734375
2138.014160 84879.070313
2139.332764 85203.109375
2140.651367 85392.820313
2141.969971 84956.000000
2143.288574 85033.312500
2144.607178 85460.554688
2145.925781 85306.406250
2147.244385 85164.773438
2148.562988 85360.984375
2149.881592 85941.976563
2151.200195 85440.421875
2152.518799 85206.773438
2153.837402 85079.812500
2155.156006 85403.718750
2156.474609 85190.906250
2157.793213 85384.773438
2159.111816 85412.570313
2160.430420 85252.367188
2161.749023 85377.046875
2163.067627 85593.570313
2164.386230 85689.625000
2165.704834 85613.750000
2167.023438 85425.085938
2168.342041 85857.085938
2169.660645 86183.976563
2170.979248 85552.179688
2172.297852 85497.296875
2173.616455 85853.179688
2174.935059 85421.531250
2176.253662 85300.882813
2177.572266 85916.390625
2178.890869 86009.195313
2180.209473 85486.539063
2181.528076 86443.234375
2182.846680 85828.515625
2184.165283 86296.578125
2185.483887 85966.562500
2186.802490 86132.906250
2188.121094 86057.796875
2189.439697 85522.859375
2190.758301 85840.984375
2192.076904 85931.945313
2193.395508 86226.750000
2194.714111 86373.421875
2196.032715 86206.812500
2197.351318 85762.687500
2198.669922 85784.992188
2199.988525 86053.250000
2201.307129 86233.828125
2202.625732 86372.664063
2203.944336 86736.742188
2205.262939 86626.406250
2206.581543 86821.476563
2207.900146 86770.328125
2209.218750 86655.523438
2210.537354 86698.726563
2211.855957 86632.125000
2213.174561 86734.312500
2214.493164 86805.664063
2215.811768 86631.460938
2217.130371 86829.132813
2218.448975 87130.445313
2219.767578 86460.609375
2221.086182 86421.937500
2222.404785 86953.398438
2223.723389 87100.859375
2225.041992 87069.382813
2226.360596 86969.000000
2227.679199 87431.000000
2228.997803 87400.960938
2230.316406 87043.671875
2231.635010 87017.414063
2232.953613 87189.718750
2234.272217 87535.484375
2235.590820 87267.617188
2236.909424 87435.953125
2238.228027 87363.265625
2239.546631 87632.531250
2240.865234 87139.273438
2242.183838 87731.539063
2243.502441 87645.539063
2244.821045 87658.156250
2246.139648 87706.359375
2247.458252 87541.132813
2248.776855 87801.468750
2250.095459 87419.125000
2251.414063 87883.296875
2252.732666 87954.421875
2254.051270 87808.718750
2255.369873 87745.945313
2256.688477 87612.226563
2258.007080 87654.929688
2259.325684 87910.601563
2260.644287 88045.718750
2261.962891 87687.695313
2263.281494 88004.546875
2264.600098 87551.976563
2265.918701 87569.976563
2267.237305 87891.632813
2268.555908 88076.296875
2269.874512 87686.765625
2271.193115 87671.570313
2272.511719 88038.609375
2273.830322 87721.585938
2275.148926 87679.968750
2276.467529 87725.007813
2277.786133 87919.664063
2279.104736 88024.460938
2280.423340 88063.742188
2281.741943 87870.835938
2283.060547 87731.687500
2284.379150 88251.929688
2285.697754 88045.414063
2287.016357 87777.554688
2288.334961 88167.726563
2289.653564 88115.453125
2290.972168 87962.945313
2292.290771 88019.906250
2293.609375 87917.007813
2294.927979 87957.500000
2296.246582 87499.726563
2297.565186 87705.703125
2298.883789 88073.164063
2300.202393 88238.765625
2301.520996 88021.531250
2302.839600 88025.656250
2304.158203 88085.640625
2305.476807 88314.320313
2306.795410 88288.546875
2308.114014 88290.390625
2309.432617 88226.359375
2310.751221 88191.976563
2312.069824 88073.406250
2313.388428 88236.054688
2314.707031 88499.648438
2316.025635 88289.085938
2317.344238 88288.984375
2318.662842 88511.484375
2319.981445 88662.578125
2321.300049 88787.570313
2322.618652 88482.625000
2323.937256 88649.335938
2325.255859 88867.507813
2326.574463 88615.984375
2327.893066 88580.046875
2329.211670 88910.664063
2330.530273 88836.546875
2331.848877 88525.820313
2333.167480 88745.445313
2334.486084 88977.867188
2335.804688 89193.992188
2337.123291 88886.320313
2338.441895 89223.703125
2339.760498 89070.039063
2341.079102 89137.390625
2342.397705 89381.218750
2343.716309 89339.359375
2345.034912 89398.695313
2346.353516 88945.882813
2347.672119 89540.898438
2348.990723 89168.640625
2350.309326 89468.828125
2351.627930 90015.750000
2352.946533 89847.523438
2354.265137 89737.218750
2355.583740 89431.664063
2356.902344 89821.226563
2358.220947 89583.343750
2359.539551 90096.484375
2360.858154 90274.945313
2362.176758 90339.796875
2363.495361 90092.335938
2364.813965 90038.414063
2366.132568 90282.703125
2367.451172 90367.015625
2368.769775 90016.375000
2370.088379 89814.898438
2371.406982 90491.476563
2372.725586 90185.781250
2374.044189 89854.460938
2375.362793 90067.718750
2376.681396 90060.539063
2378.000000 90849.429688
2379.318604 90174.437500
2380.637207 90804.789063
2381.955811 90493.671875
2383.274414 90681.023438
2384.593018 90437.773438
2385.911621 90272.781250
2387.230225 90393.390625
2388.548828 90444.117188
2389.867432 90627.023438
2391.186035 90774.039063
2392.504639 90740.617188
2393.823242 90487.570313
2395.141846 90906.578125
2396.460449 90321.632813
2397.779053 90919.226563
2399.097656 90767.398438
2400.416260 91154.765625
2401.734863 91036.421875
2403.053467 90884.460938
2404.372070 90988.492188
2405.690674 90875.906250
2407.009277 90787.562500
2408.327881 91013.039063
2409.646484 90816.375000
2410.965088 90840.195313
2412.283691 90960.695313
2413.602295 90920.859375
2414.920898 91056.718750
2416.239502 91012.125000
2417.558105 90948.687500
2418.876709 91468.859375
2420.195313 91355.312500
2421.513916 91438.937500
2422.832520 91300.585938
2424.151123 91243.804688
2425.469727 91471.203125
2426.788330 91351.851563
2428.106934 91116.453125
2429.425537 91089.218750
2430.744141 90986.500000
2432.062744 90954.281250
2433.381348 91124.468750
2434.699951 91417.992188
2436.018555 91470.328125
2437.337158 91754.828125
2438.655762 91466.132813
2439.974365 91672.937500
2441.292969 91952.312500
2442.611572 91683.007813
2443.930176 91833.445313
2445.248779 91957.039063
2446.567383 91854.281250
2447.885986 92023.789063
2449.204590 91880.968750
2450.523193 91860.476563
2451.841797 92071.664063
2453.160400 91919.718750
2454.479004 92198.000000
2455.797607 92383.296875
2457.116211 92827.898438
2458.434814 92358.765625
2459.753418 92235.648438
2461.072021 92317.031250
2462.390625 92586.671875
2463.709229 92548.593750
2465.027832 92515.859375
2466.346436 92300.859375
2467.665039 92436.679688
2468.983643 92736.031250
2470.302246 93255.078125
2471.620850 92858.234375
2472.939453 92425.312500
2474.258057 93010.406250
2475.576660 93006.070313
2476.895264 93174.953125
2478.213867 92745.765625
2479.532471 93425.632813
2480.851074 92872.890625
2482.169678 93105.343750
2483.488281 93351.054688
2484.806885 93357.406250
2486.125488 93309.593750
2487.444092 93209.429688
2488.762695 93517.062500
2490.081299 93241.757813
2491.399902 93400.992188
2492.718506 93691.625000
2494.037109 93423.773438
2495.355713 93370.710938
2496.674316 93544.187500
2497.992920 93325.585938
2499.311523 93878.859375
2500.630127 93372.562500
2501.948730 93440.328125
2503.267334 93783.570313
2504.585938 93895.125000
2505.904541 93528.031250
2507.223145 93399.296875
2508.541748 93701.937500
2509.860352 93682.117188
2511.178955 93627.882813
2512.497559 93511.562500
2513.816162 93812.093750
2515.134766 93760.273438
2516.453369 93479.742188
2517.771973 93863.656250
2519.090576 93474.117188
2520.409180 93338.835938
2521.727783 93910.921875
2523.046387 93678.523438
2524.364990 93661.468750
2525.683594 93644.742188
2527.002197 93637.000000
2528.320801 93575.304688
2529.639404 93566.632813
2530.958008 93522.242188
2532.276611 93393.382813
2533.595215 93408.359375
2534.913818 93849.164063
2536.232422 93814.968750
2537.551025 93951.531250
2538.869629 93573.156250
2540.188232 93563.851563
2541.506836 93568.296875
2542.825439 94021.195313
2544.144043 93162.109375
2545.462646 93448.835938
2546.781250 93628.570313
2548.099854 93453.757813
2549.418457 93798.453125
2550.737061 93833.500000
2552.055664 93668.812500
2553.374268 93939.343750
2554.692871 93570.992188
2556.011475 93446.515625
2557.330078 94059.859375
2558.648682 93793.398438
2559.967285 93353.703125
2561.285889 93785.789063
2562.604492 93636.781250
2563.923096 93478.210938
2565.241699 93718.664063
2566.560303 93535.414063
2567.878906 93564.992188
2569.197510 93608.539063
2570.516113 93851.656250
2571.834717 93504.632813
2573.153320 94552.414063
2574.471924 94091.460938
2575.790527 94576.468750
2577.109131 94121.125000
2578.427734 93940.468750
2579.746338 94247.742188
2581.064941 93838.046875
2582.383545 93872.578125
2583.702148 94074.890625
2585.020752 93677.945313
2586.339355 94290.421875
2587.657959 94096.093750
2588.976563 94128.054688
2590.295166 93863.640625
2591.613770 94117.601563
2592.932373 94365.492188
2594.250977 94185.015625
2595.569580 94128.992188
2596.888184 94356.640625
2598.206787 94382.859375
2599.525391 94558.023438
2600.843994 94767.132813
2602.162598 94363.609375
2603.481201 94483.609375
2604.799805 94486.343750
2606.118408 94789.390625
2607.437012 94892.265625
2608.755615 94720.023438
2610.074219 94393.593750
2611.392822 95245.570313
2612.711426 94679.187500
2614.030029 94598.484375
2615.348633 94937.765625
2616.667236 94944.671875
2617.985840 95045.804688
2619.304443 95325.320313
2620.623047 95376.203125
2621.941650 95185.484375
2623.260254 95136.828125
2624.578857 95541.054688
2625.897461 95606.812500
2627.216064 95075.750000
2628.534668 94976.320313
2629.853271 94588.429688
2631.171875 95202.000000
2632.490479 95456.828125
2633.809082 95241.671875
2635.127686 94831.898438
2636.446289 95257.484375
2637.764893 95512.265625
2639.083496 95131.875000
2640.402100 94817.664063
2641.720703 95024.679688
2643.039307 95154.765625
2644.357910 95262.046875
2645.676514 95309.726563
2646.995117 95469.726563
2648.313721 95070.078125
2649.632324 95345.023438
2650.950928 95272.953125
2652.269531 95059.453125
2653.588135 94912.406250
2654.906738 95249.703125
2656.225342 95396.921875
2657.543945 95432.109375
2658.862549 95122.835938
2660.181152 95079.484375
2661.499756 95497.757813
2662.818359 94820.468750
2664.136963 95229.234375
2665.455566 95071.929688
2666.774170 95590.093750
2668.092773 95086.648438
2669.411377 94716.820313
2670.729980 94583.742188
2672.048584 94752.281250
2673.367188 94539.742188
2674.685791 94747.250000
2676.004395 94716.171875
2677.322998 95424.351563
2678.641602 95241.953125
2679.960205 94800.914063
2681.278809 94832.976563
2682.597412 95046.281250
2683.916016 94976.695313
2685.234619 94985.656250
2686.553223 94731.476563
2687.871826 94984.875000
2689.190430 95037.812500
2690.509033 94993.515625
2691.827637 95071.054688
2693.146240 94901.820313
2694.464844 95392.468750
2695.783447 94995.765625
2697.102051 94930.015625
2698.420654 94687.250000
2699.739258 94798.242188
2701.057861 94399.367188
2702.376465 94146.328125
2703.695068 94532.335938
2705.013672 94841.289063
2706.332275 94972.960938
2707.650879 94529.718750
2708.969482 93923.617188
2710.288086 94665.218750
2711.606689 94520.757813
2712.925293 94332.523438
2714.243896 94415.609375
2715.562500 94550.609375
2716.881104 94688.093750
2718.199707 94524.765625
2719.518311 94442.789063
2720.836914 94398.671875
2722.155518 94534.375000
2723.474121 94587.843750
2724.792725 94856.187500
2726.111328 94768.656250
2727.429932 94592.750000
2728.748535 94285.320313
2730.067139 94209.281250
2731.385742 94237.023438
2732.704346 94423.125000
2734.022949 94329.531250
2735.341553 94755.906250
2736.660156 94333.507813
2737.978760 94053.578125
2739.297363 94213.734375
2740.615967 94527.023438
2741.934570 94147.812500
2743.253174 94136.656250
2744.571777 93776.351563
2745.890381 94164.320313
2747.208984 94229.148438
2748.527588 94122.507813
2749.846191 94023.257813
2751.164795 93745.500000
2752.483398 94192.273438
2753.802002 93550.093750
2755.120605 93911.460938
2756.439209 93550.687500
2757.757813 93652.679688
2759.076416 93873.437500
2760.395020 93443.804688
2761.713623 93539.726563
2763.032227 93766.789063
2764.350830 94096.585938
2765.669434 93160.617188
2766.988037 93772.007813
2768.306641 93370.414063
2769.625244 93431.523438
2770.943848 93308.054688
2772.262451 92901.109375
2773.581055 93242.523438
2774.899658 93296.726563
2776.218262 93300.335938
2777.536865 93273.007813
2778.855469 93079.593750
2780.174072 93169.718750
2781.492676 93170.054688
2782.811279 93271.375000
2784.129883 92856.617188
2785.448486 92938.664063
2786.767090 92963.140625
2788.085693 92782.656250
2789.404297 92824.218750
2790.722900 92874.914063
2792.041504 92690.351563
2793.360107 92251.140625
2794.678711 92952.171875
2795.997314 92313.007813
2797.315918 92624.750000
2798.634521 92449.289063
2799.953125 92240.781250
2801.271729 92338.523438
2802.590332 92305.960938
2803.908936 92727.507813
2805.227539 92920.585938
2806.546143 92526.296875
2807.864746 92038.812500
2809.183350 92160.820313
2810.501953 92418.218750
2811.820557 92496.148438
2813.139160 92217.734375
2814.457764 92817.570313
2815.776367 91812.070313
2817.094971 92445.312500
2818.413574 92300.078125
2819.732178 92254.460938
2821.050781 92100.773438
2822.369385 92093.320313
2823.687988 92023.343750
2825.006592 92296.250000
2826.325195 91723.554688
2827.643799 92029.898438
2828.962402 91875.546875
2830.281006 91858.414063
2831.599609 91979.179688
2832.918213 91955.257813
2834.236816 92559.562500
2835.555420 91961.250000
2836.874023 92154.718750
2838.192627 92011.648438
2839.511230 91709.421875
2840.829834 91930.546875
2842.148438 91657.304688
2843.467041 91644.718750
2844.785645 91465.015625
2846.104248 91588.945313
2847.422852 91712.460938
2848.741455 91610.398438
2850.060059 91779.726563
2851.378662 91383.468750
2852.697266 91145.882813
2854.015869 91707.359375
2855.334473 91723.343750
2856.653076 91329.453125
2857.971680 90962.406250
2859.290283 91205.257813
2860.608887 91642.789063
2861.927490 91426.265625
2863.246094 91269.257813
2864.564697 91118.968750
2865.883301 91451.046875
2867.201904 91145.734375
2868.520508 91315.875000
2869.839111 91211.351563
2871.157715 91487.007813
2872.476318 90543.882813
2873.794922 90358.648438
2875.113525 91348.515625
2876.432129 91110.570313
2877.750732 90978.578125
2879.069336 90922.750000
2880.387939 91020.757813
2881.706543 90784.937500
2883.025146 91194.085938
2884.343750 90632.312500
2885.662354 91181.414063
2886.980957 91027.976563
2888.299561 91069.398438
2889.618164 90829.851563
2890.936768 90716.195313
2892.255371 91225.375000
2893.573975 91150.570313
2894.892578 91144.046875
2896.211182 91431.539063
2897.529785 91345.281250
2898.848389 91399.468750
2900.166992 90798.562500
2901.485596 90788.320313
2902.804199 91002.960938
2904.122803 90836.031250
2905.441406 90358.351563
2906.760010 90474.890625
2908.078613 90454.609375
2909.397217 90649.921875
2910.715820 90380.414063
2912.034424 90345.195313
2913.353027 90467.531250
2914.671631 90355.375000
2915.990234 90287.562500
2917.308838 90375.273438
2918.627441 90202.843750
2919.946045 90249.335938
2921.264648 89775.617188
2922.583252 89576.046875
2923.901855 89653.039063
2925.220459 89909.859375
2926.539063 89697.984375
2927.857666 89774.796875
2929.176270 89732.437500
2930.494873 89914.351563
2931.813477 89883.210938
2933.132080 90149.875000
2934.450684 89379.507813
2935.769287 89872.750000
2937.087891 90003.656250
2938.406494 90332.085938
2939.725098 90087.359375
2941.043701 90537.593750
2942.362305 90677.085938
2943.680908 90197.007813
2944.999512 90339.820313
2946.318115 90530.492188
2947.636719 90334.937500
2948.955322 90089.195313
2950.273926 90547.953125
2951.592529 90088.171875
2952.911133 89609.250000
2954.229736 89861.070313
2955.548340 89656.890625
2956.866943 89807.625000
2958.185547 89873.179688
2959.504150 89891.304688
2960.822754 89623.390625
2962.141357 89312.132813
2963.459961 89301.890625
2964.778564 89243.632813
2966.097168 89260.085938
2967.415771 88965.218750
2968.734375 89105.875000
2970.052979 89226.585938
2971.371582 89154.843750
2972.690186 88859.046875
2974.008789 88528.781250
2975.327393 88563.109375
2976.645996 88867.507813
2977.964600 88758.750000
2979.283203 88785.085938
2980.601807 88965.593750
2981.920410 88764.156250
2983.239014 88777.156250
2984.557617 88717.039063
2985.876221 88991.437500
2987.194824 88947.921875
2988.513428 88875.726563
2989.832031 88529.195313
2991.150635 88764.414063
2992.469238 88808.750000
2993.787842 88961.273438
2995.106445 88787.054688
2996.425049 88598.914063
2997.743652 88538.226563
2999.062256 88280.789063
3000.380859 88222.273438
