#DatasetIndex		#Wave		#Intensity
0.000000	699.292969	17510.298828
0.000000	700.611694	17465.416016
0.000000	701.930420	17516.816406
0.000000	703.249146	17461.990234
0.000000	704.567871	17463.365234
0.000000	705.886597	17559.474609
0.000000	707.205322	17592.480469
0.000000	708.524048	17492.744141
0.000000	709.842773	17695.158203
0.000000	711.161499	17813.636719
0.000000	712.480225	17765.431641
0.000000	713.798950	17725.666016
0.000000	715.117676	17765.123047
0.000000	716.436401	17821.550781
0.000000	717.755127	17840.886719
0.000000	719.073853	17959.279297
0.000000	720.392578	18183.363281
0.000000	721.711304	18070.912109
0.000000	723.030029	17959.316406
0.000000	724.348755	18008.115234
0.000000	725.667480	18090.886719
0.000000	726.986206	18028.892578
0.000000	728.304932	18312.865234
0.000000	729.623657	18294.328125
0.000000	730.942383	18044.144531
0.000000	732.261108	18004.968750
0.000000	733.579834	18143.839844
0.000000	734.898560	18284.718750
0.000000	736.217285	18341.908203
0.000000	737.536011	18189.076172
0.000000	738.854736	18248.542969
0.000000	740.173462	18260.400391
0.000000	741.492188	18345.800781
0.000000	742.810913	18400.289063
0.000000	744.129639	18372.236328
0.000000	745.448364	18306.396484
0.000000	746.767090	18236.642578
0.000000	748.085815	18229.621094
0.000000	749.404541	18261.042969
0.000000	750.723267	18444.173828
0.000000	752.041992	18459.316406
0.000000	753.360718	18423.181641
0.000000	754.679443	18508.998047
0.000000	755.998169	18545.263672
0.000000	757.316895	18330.781250
0.000000	758.635620	18389.650391
0.000000	759.954346	18412.421875
0.000000	761.273071	18522.513672
0.000000	762.591797	18563.988281
0.000000	763.910522	18530.884766
0.000000	765.229248	18566.316406
0.000000	766.547974	18586.662109
0.000000	767.866699	18556.855469
0.000000	769.185425	18621.482422
0.000000	770.504150	18723.623047
0.000000	771.822876	18657.726563
0.000000	773.141602	18652.398438
0.000000	774.460327	18857.664063
0.000000	775.779053	18944.691406
0.000000	777.097778	18710.328125
0.000000	778.416504	18833.509766
0.000000	779.735229	18922.232422
0.000000	781.053955	18876.671875
0.000000	782.372681	18861.185547
0.000000	783.691406	18895.525391
0.000000	785.010132	18915.218750
0.000000	786.328857	19050.072266
0.000000	787.647583	18968.630859
0.000000	788.966309	19162.160156
0.000000	790.285034	19063.160156
0.000000	791.603760	19014.009766
0.000000	792.922485	19006.031250
0.000000	794.241211	19051.806641
0.000000	795.559937	19305.548828
0.000000	796.878662	19504.423828
0.000000	798.197388	19500.363281
0.000000	799.516113	19417.107422
0.000000	800.834839	19282.792969
0.000000	802.153564	19274.816406
0.000000	803.472290	19377.324219
0.000000	804.791016	19478.330078
0.000000	806.109741	19547.832031
0.000000	807.428467	19599.953125
0.000000	808.747192	19603.734375
0.000000	810.065918	19500.587891
0.000000	811.384644	19533.328125
0.000000	812.703369	19666.464844
0.000000	814.022095	19742.808594
0.000000	815.340820	19734.878906
0.000000	816.659546	19823.574219
0.000000	817.978271	19692.572266
0.000000	819.296997	19954.029297
0.000000	820.615723	19812.222656
0.000000	821.934448	19693.050781
0.000000	823.253174	19802.513672
0.000000	824.571899	19948.556641
0.000000	825.890625	19916.457031
0.000000	827.209351	19941.492188
0.000000	828.528076	19875.255859
0.000000	829.846802	19753.207031
0.000000	831.165527	19784.167969
0.000000	832.484253	19926.142578
0.000000	833.802979	19995.849609
0.000000	835.121704	19958.488281
0.000000	836.440430	19964.005859
0.000000	837.759155	20101.517578
0.000000	839.077881	19984.373047
0.000000	840.396606	20062.007813
0.000000	841.715332	20066.609375
0.000000	843.034058	19988.837891
0.000000	844.352783	19988.699219
0.000000	845.671509	20051.791016
0.000000	846.990234	20061.011719
0.000000	848.308960	20148.558594
0.000000	849.627686	20115.443359
0.000000	850.946411	20144.910156
0.000000	852.265137	20214.558594
0.000000	853.583862	20149.960938
0.000000	854.902588	20164.042969
0.000000	856.221313	20216.966797
0.000000	857.540039	20136.226563
0.000000	858.858765	20239.726563
0.000000	860.177490	20460.177734
0.000000	861.496216	20473.349609
0.000000	862.814941	20437.419922
0.000000	864.133667	20439.410156
0.000000	865.452393	20478.496094
0.000000	866.771118	20436.681641
0.000000	868.089844	20353.916016
0.000000	869.408569	20557.308594
0.000000	870.727295	20526.998047
0.000000	872.046021	20482.460938
0.000000	873.364746	20422.886719
0.000000	874.683472	20440.640625
0.000000	876.002197	20592.240234
0.000000	877.320923	20727.490234
0.000000	878.639648	20741.507813
0.000000	879.958374	20780.419922
0.000000	881.277100	20803.958984
0.000000	882.595825	20770.667969
0.000000	883.914551	20868.550781
0.000000	885.233276	21015.271484
0.000000	886.552002	21031.310547
0.000000	887.870728	20942.304688
0.000000	889.189453	20955.662109
0.000000	890.508179	21163.771484
0.000000	891.826904	21162.681641
0.000000	893.145630	20817.857422
0.000000	894.464355	20957.519531
0.000000	895.783081	21204.992188
0.000000	897.101807	21189.396484
0.000000	898.420532	21190.271484
0.000000	899.739258	21335.451172
0.000000	901.057983	21381.126953
0.000000	902.376709	21247.763672
0.000000	903.695435	21257.078125
0.000000	905.014160	21222.117188
0.000000	906.332886	21207.898438
0.000000	907.651611	21282.851563
0.000000	908.970337	21363.818359
0.000000	910.289063	21381.542969
0.000000	911.607788	21378.076172
0.000000	912.926514	21481.546875
0.000000	914.245239	21736.062500
0.000000	915.563965	21529.802734
0.000000	916.882690	21511.189453
0.000000	918.201416	21613.246094
0.000000	919.520142	21634.271484
0.000000	920.838867	21686.044922
0.000000	922.157593	21806.408203
0.000000	923.476318	21811.378906
0.000000	924.795044	21620.253906
0.000000	926.113770	21758.513672
0.000000	927.432495	21696.685547
0.000000	928.751221	21693.400391
0.000000	930.069946	21568.371094
0.000000	931.388672	21610.152344
0.000000	932.707397	21705.740234
0.000000	934.026123	21704.218750
0.000000	935.344849	21750.208984
0.000000	936.663574	21799.597656
0.000000	937.982300	21929.353516
0.000000	939.301025	21808.759766
0.000000	940.619751	21674.597656
0.000000	941.938477	21731.830078
0.000000	943.257202	21842.085938
0.000000	944.575928	21898.980469
0.000000	945.894653	21853.988281
0.000000	947.213379	21704.335938
0.000000	948.532104	21896.105469
0.000000	949.850830	22023.417969
0.000000	951.169556	21845.064453
0.000000	952.488281	22006.085938
0.000000	953.807007	22188.570313
0.000000	955.125732	22199.574219
0.000000	956.444458	22140.826172
0.000000	957.763184	22134.621094
0.000000	959.081909	22096.236328
0.000000	960.400635	22120.447266
0.000000	961.719360	22210.640625
0.000000	963.038086	22230.363281
0.000000	964.356812	22210.539063
0.000000	965.675537	22183.134766
0.000000	966.994263	22202.929688
0.000000	968.312988	22255.345703
0.000000	969.631714	22275.044922
0.000000	970.950439	22271.355469
0.000000	972.269165	22389.371094
0.000000	973.587891	22439.484375
0.000000	974.906616	22493.609375
0.000000	976.225342	22441.615234
0.000000	977.544067	22459.517578
0.000000	978.862793	22449.214844
0.000000	980.181519	22491.835938
0.000000	981.500244	22672.490234
0.000000	982.818970	22661.310547
0.000000	984.137695	22635.023438
0.000000	985.456421	22682.298828
0.000000	986.775146	22755.259766
0.000000	988.093872	22812.480469
0.000000	989.412598	22865.300781
0.000000	990.731323	22899.523438
0.000000	992.050049	22919.253906
0.000000	993.368774	22956.787109
0.000000	994.687500	22996.513672
0.000000	996.006226	22861.654297
0.000000	997.324951	22589.425781
0.000000	998.643677	22899.275391
0.000000	999.962402	23007.982422
0.000000	1001.281128	23053.974609
0.000000	1002.599854	23125.273438
0.000000	1003.918579	23125.261719
0.000000	1005.237305	23194.765625
0.000000	1006.556030	23505.083984
0.000000	1007.874756	23212.640625
0.000000	1009.193481	23384.244141
0.000000	1010.512207	23243.082031
0.000000	1011.830933	23480.025391
0.000000	1013.149658	23255.779297
0.000000	1014.468384	23281.929688
0.000000	1015.787109	23465.582031
0.000000	1017.105835	23436.400391
0.000000	1018.424561	23350.990234
0.000000	1019.743286	23398.458984
0.000000	1021.062012	23578.710938
0.000000	1022.380737	23424.818359
0.000000	1023.699463	23388.181641
0.000000	1025.018188	23325.173828
0.000000	1026.336914	23449.761719
0.000000	1027.655640	23600.773438
0.000000	1028.974365	23629.964844
0.000000	1030.293091	23584.289063
0.000000	1031.611816	23562.423828
0.000000	1032.930542	23635.085938
0.000000	1034.249268	23450.355469
0.000000	1035.567993	23515.039063
0.000000	1036.886719	23687.576172
0.000000	1038.205444	23719.414063
0.000000	1039.524170	23574.259766
0.000000	1040.842896	23583.080078
0.000000	1042.161621	23696.378906
0.000000	1043.480347	23576.238281
0.000000	1044.799072	23515.642578
0.000000	1046.117798	23996.158203
0.000000	1047.436523	23764.867188
0.000000	1048.755249	23478.914063
0.000000	1050.073975	23616.675781
0.000000	1051.392700	23692.330078
0.000000	1052.711426	23793.246094
0.000000	1054.030151	23827.869141
0.000000	1055.348877	23752.376953
0.000000	1056.667603	23807.365234
0.000000	1057.986328	23928.738281
0.000000	1059.305054	23970.955078
0.000000	1060.623779	24232.208984
0.000000	1061.942505	23891.576172
0.000000	1063.261230	23977.955078
0.000000	1064.579956	24053.570313
0.000000	1065.898682	23905.390625
0.000000	1067.217407	23881.410156
0.000000	1068.536133	24099.914063
0.000000	1069.854858	24154.160156
0.000000	1071.173584	24078.917969
0.000000	1072.492310	24216.314453
0.000000	1073.811035	24178.783203
0.000000	1075.129761	24291.699219
0.000000	1076.448486	24429.210938
0.000000	1077.767212	24269.154297
0.000000	1079.085938	24417.330078
0.000000	1080.404663	24533.162109
0.000000	1081.723389	24347.197266
0.000000	1083.042114	24487.544922
0.000000	1084.360840	24526.082031
0.000000	1085.679565	24481.316406
0.000000	1086.998291	24623.996094
0.000000	1088.317017	24697.246094
0.000000	1089.635742	24649.277344
0.000000	1090.954468	24603.212891
0.000000	1092.273193	24561.085938
0.000000	1093.591919	24565.160156
0.000000	1094.910645	24537.718750
0.000000	1096.229370	24464.802734
0.000000	1097.548096	24723.597656
0.000000	1098.866821	24812.617188
0.000000	1100.185547	24818.212891
0.000000	1101.504272	24959.031250
0.000000	1102.822998	24895.000000
0.000000	1104.141724	24950.615234
0.000000	1105.460449	25029.970703
0.000000	1106.779175	25185.552734
0.000000	1108.097900	25172.621094
0.000000	1109.416626	24938.119141
0.000000	1110.735352	25118.242188
0.000000	1112.054077	25068.832031
0.000000	1113.372803	25265.402344
0.000000	1114.691528	25168.902344
0.000000	1116.010254	25266.595703
0.000000	1117.328979	25243.189453
0.000000	1118.647705	25258.701172
0.000000	1119.966431	25298.974609
0.000000	1121.285156	25286.316406
0.000000	1122.603882	25233.074219
0.000000	1123.922607	25184.890625
0.000000	1125.241333	25161.619141
0.000000	1126.560059	25360.759766
0.000000	1127.878784	25079.970703
0.000000	1129.197510	25110.546875
0.000000	1130.516235	25297.146484
0.000000	1131.834961	25414.759766
0.000000	1133.153687	25365.556641
0.000000	1134.472412	25280.814453
0.000000	1135.791138	25317.101563
0.000000	1137.109863	25407.574219
0.000000	1138.428589	25375.550781
0.000000	1139.747314	25361.181641
0.000000	1141.066040	25310.744141
0.000000	1142.384766	25268.031250
0.000000	1143.703491	25440.767578
0.000000	1145.022217	25446.726563
0.000000	1146.340942	25522.771484
0.000000	1147.659668	25491.617188
0.000000	1148.978394	25428.921875
0.000000	1150.297119	25462.697266
0.000000	1151.615845	25464.804688
0.000000	1152.934570	25409.509766
0.000000	1154.253296	25747.320313
0.000000	1155.572021	25833.941406
0.000000	1156.890747	25634.210938
0.000000	1158.209473	25719.318359
0.000000	1159.528198	25720.105469
0.000000	1160.846924	25607.679688
0.000000	1162.165649	25674.732422
0.000000	1163.484375	25822.558594
0.000000	1164.803101	25809.185547
0.000000	1166.121826	25752.699219
0.000000	1167.440552	25883.027344
0.000000	1168.759277	25848.753906
0.000000	1170.078003	26006.630859
0.000000	1171.396729	25670.923828
0.000000	1172.715454	25973.365234
0.000000	1174.034180	25799.720703
0.000000	1175.352905	25951.029297
0.000000	1176.671631	26126.277344
0.000000	1177.990356	26177.851563
0.000000	1179.309082	26213.289063
0.000000	1180.627808	26242.884766
0.000000	1181.946533	26183.785156
0.000000	1183.265259	26094.662109
0.000000	1184.583984	26362.080078
0.000000	1185.902710	26295.271484
0.000000	1187.221436	26296.480469
0.000000	1188.540161	26480.398438
0.000000	1189.858887	26413.769531
0.000000	1191.177612	26317.826172
0.000000	1192.496338	26482.398438
0.000000	1193.815063	26624.339844
0.000000	1195.133789	26513.521484
0.000000	1196.452515	26446.693359
0.000000	1197.771240	26643.035156
0.000000	1199.089966	26785.923828
0.000000	1200.408691	26627.437500
0.000000	1201.727417	26760.140625
0.000000	1203.046143	26747.425781
0.000000	1204.364868	26829.005859
0.000000	1205.683594	26757.914063
0.000000	1207.002319	26789.220703
0.000000	1208.321045	26856.964844
0.000000	1209.639771	26886.664063
0.000000	1210.958496	26879.828125
0.000000	1212.277222	26909.904297
0.000000	1213.595947	27144.964844
0.000000	1214.914673	26869.158203
0.000000	1216.233398	27037.496094
0.000000	1217.552124	26991.849609
0.000000	1218.870850	27111.126953
0.000000	1220.189575	27019.537109
0.000000	1221.508301	26902.267578
0.000000	1222.827026	27084.736328
0.000000	1224.145752	27122.105469
0.000000	1225.464478	27060.341797
0.000000	1226.783203	27272.433594
0.000000	1228.101929	27420.164063
0.000000	1229.420654	27117.261719
0.000000	1230.739380	27129.408203
0.000000	1232.058105	27323.451172
0.000000	1233.376831	27398.326172
0.000000	1234.695557	27212.714844
0.000000	1236.014282	27292.378906
0.000000	1237.333008	27200.322266
0.000000	1238.651733	27293.628906
0.000000	1239.970459	27189.660156
0.000000	1241.289185	27079.201172
0.000000	1242.607910	27117.957031
0.000000	1243.926636	27054.632813
0.000000	1245.245361	27291.228516
0.000000	1246.564087	27481.140625
0.000000	1247.882813	27180.615234
0.000000	1249.201538	27096.857422
0.000000	1250.520264	27349.710938
0.000000	1251.838989	27353.617188
0.000000	1253.157715	27380.775391
0.000000	1254.476440	27443.730469
0.000000	1255.795166	27379.269531
0.000000	1257.113892	27399.476563
0.000000	1258.432617	27484.968750
0.000000	1259.751343	27432.755859
0.000000	1261.070068	27417.255859
0.000000	1262.388794	27546.791016
0.000000	1263.707520	27593.439453
0.000000	1265.026245	27815.074219
0.000000	1266.344971	27414.976563
0.000000	1267.663696	27516.972656
0.000000	1268.982422	27598.380859
0.000000	1270.301147	27878.859375
0.000000	1271.619873	27903.763672
0.000000	1272.938599	27959.953125
0.000000	1274.257324	27995.322266
0.000000	1275.576050	27936.494141
0.000000	1276.894775	27990.296875
0.000000	1278.213501	27984.480469
0.000000	1279.532227	27748.623047
0.000000	1280.850952	28037.707031
0.000000	1282.169678	28087.060547
0.000000	1283.488403	28004.224609
0.000000	1284.807129	27897.560547
0.000000	1286.125854	27895.019531
0.000000	1287.444580	28024.460938
0.000000	1288.763306	28210.390625
0.000000	1290.082031	28223.912109
0.000000	1291.400757	28179.332031
0.000000	1292.719482	28210.357422
0.000000	1294.038208	28223.337891
0.000000	1295.356934	28210.558594
0.000000	1296.675659	28303.285156
0.000000	1297.994385	28401.783203
0.000000	1299.313110	28538.849609
0.000000	1300.631836	28746.833984
0.000000	1301.950562	28722.724609
0.000000	1303.269287	28865.537109
0.000000	1304.588013	28600.275391
0.000000	1305.906738	28611.917969
0.000000	1307.225464	28704.720703
0.000000	1308.544189	28668.496094
0.000000	1309.862915	28633.152344
0.000000	1311.181641	28625.742188
0.000000	1312.500366	28657.324219
0.000000	1313.819092	28882.941406
0.000000	1315.137817	28940.580078
0.000000	1316.456543	28866.000000
0.000000	1317.775269	29125.730469
0.000000	1319.093994	28806.990234
0.000000	1320.412720	28813.962891
0.000000	1321.731445	29213.199219
0.000000	1323.050171	29287.312500
0.000000	1324.368896	29345.798828
0.000000	1325.687622	29107.832031
0.000000	1327.006348	29035.910156
0.000000	1328.325073	29077.119141
0.000000	1329.643799	29021.378906
0.000000	1330.962524	29146.511719
0.000000	1332.281250	29274.494141
0.000000	1333.599976	29338.265625
0.000000	1334.918701	29005.794922
0.000000	1336.237427	29155.410156
0.000000	1337.556152	29240.634766
0.000000	1338.874878	29185.085938
0.000000	1340.193604	28995.564453
0.000000	1341.512329	29026.751953
0.000000	1342.831055	29213.794922
0.000000	1344.149780	29361.912109
0.000000	1345.468506	29219.464844
0.000000	1346.787231	29219.923828
0.000000	1348.105957	29464.816406
0.000000	1349.424683	29560.892578
0.000000	1350.743408	29591.701172
0.000000	1352.062134	29562.501953
0.000000	1353.380859	29414.810547
0.000000	1354.699585	29438.414063
0.000000	1356.018311	29367.480469
0.000000	1357.337036	29255.808594
0.000000	1358.655762	29354.917969
0.000000	1359.974487	29482.117188
0.000000	1361.293213	29601.884766
0.000000	1362.611938	29504.052734
0.000000	1363.930664	29383.679688
0.000000	1365.249390	29492.035156
0.000000	1366.568115	29522.589844
0.000000	1367.886841	29401.771484
0.000000	1369.205566	29375.330078
0.000000	1370.524292	29387.345703
0.000000	1371.843018	29605.273438
0.000000	1373.161743	29572.208984
0.000000	1374.480469	29306.531250
0.000000	1375.799194	29684.328125
0.000000	1377.117920	29671.605469
0.000000	1378.436646	29883.638672
0.000000	1379.755371	29973.671875
0.000000	1381.074097	29986.566406
0.000000	1382.392822	29962.291016
0.000000	1383.711548	29757.908203
0.000000	1385.030273	29861.380859
0.000000	1386.348999	29954.111328
0.000000	1387.667725	29851.904297
0.000000	1388.986450	29884.585938
0.000000	1390.305176	29976.087891
0.000000	1391.623901	30083.458984
0.000000	1392.942627	30046.355469
0.000000	1394.261353	30009.488281
0.000000	1395.580078	30191.730469
0.000000	1396.898804	30308.267578
0.000000	1398.217529	30250.074219
0.000000	1399.536255	30354.316406
0.000000	1400.854980	30344.605469
0.000000	1402.173706	30332.847656
0.000000	1403.492432	30501.294922
0.000000	1404.811157	30508.500000
0.000000	1406.129883	30492.615234
0.000000	1407.448608	30554.498047
0.000000	1408.767334	30546.324219
0.000000	1410.086060	30562.121094
0.000000	1411.404785	30638.611328
0.000000	1412.723511	30555.251953
0.000000	1414.042236	30682.035156
0.000000	1415.360962	30516.345703
0.000000	1416.679688	30630.419922
0.000000	1417.998413	30551.882813
0.000000	1419.317139	30834.007813
0.000000	1420.635864	30851.341797
0.000000	1421.954590	30668.251953
0.000000	1423.273315	30826.830078
0.000000	1424.592041	31060.962891
0.000000	1425.910767	30931.921875
0.000000	1427.229492	30877.589844
0.000000	1428.548218	31036.650391
0.000000	1429.866943	31069.761719
0.000000	1431.185669	31037.695313
0.000000	1432.504395	31083.820313
0.000000	1433.823120	31042.101563
0.000000	1435.141846	31170.902344
0.000000	1436.460571	31362.076172
0.000000	1437.779297	31152.837891
0.000000	1439.098022	31230.591797
0.000000	1440.416748	31311.656250
0.000000	1441.735474	31017.126953
0.000000	1443.054199	31293.998047
0.000000	1444.372925	31438.726563
0.000000	1445.691650	31140.236328
0.000000	1447.010376	31121.732422
0.000000	1448.329102	31285.068359
0.000000	1449.647827	31390.910156
0.000000	1450.966553	31470.800781
0.000000	1452.285278	31404.833984
0.000000	1453.604004	31299.191406
0.000000	1454.922729	31317.744141
0.000000	1456.241455	31345.300781
0.000000	1457.560181	31384.308594
0.000000	1458.878906	31301.189453
0.000000	1460.197632	31223.603516
0.000000	1461.516357	31357.044922
0.000000	1462.835083	31110.714844
0.000000	1464.153809	31026.117188
0.000000	1465.472534	31500.718750
0.000000	1466.791260	31331.068359
0.000000	1468.109985	31350.761719
0.000000	1469.428711	31424.658203
0.000000	1470.747437	31559.568359
0.000000	1472.066162	31452.732422
0.000000	1473.384888	31345.181641
0.000000	1474.703613	31333.781250
0.000000	1476.022339	31329.458984
0.000000	1477.341064	31400.693359
0.000000	1478.659790	31453.253906
0.000000	1479.978516	31410.724609
0.000000	1481.297241	31556.660156
0.000000	1482.615967	31775.978516
0.000000	1483.934692	31760.253906
0.000000	1485.253418	31701.261719
0.000000	1486.572144	31634.490234
0.000000	1487.890869	31851.841797
0.000000	1489.209595	31480.388672
0.000000	1490.528320	31829.636719
0.000000	1491.847046	31790.345703
0.000000	1493.165771	31890.080078
0.000000	1494.484497	31886.382813
0.000000	1495.803223	31826.759766
0.000000	1497.121948	31804.830078
0.000000	1498.440674	31969.222656
0.000000	1499.759399	31864.025391
0.000000	1501.078125	31836.292969
0.000000	1502.396851	31887.062500
0.000000	1503.715576	31819.208984
0.000000	1505.034302	31920.273438
0.000000	1506.353027	32118.087891
0.000000	1507.671753	32174.359375
0.000000	1508.990479	32156.943359
0.000000	1510.309204	32209.800781
0.000000	1511.627930	32449.111328
0.000000	1512.946655	32216.398438
0.000000	1514.265381	32250.019531
0.000000	1515.584106	32399.568359
0.000000	1516.902832	32312.929688
0.000000	1518.221558	32598.859375
0.000000	1519.540283	32582.884766
0.000000	1520.859009	32477.345703
0.000000	1522.177734	32459.160156
0.000000	1523.496460	32474.376953
0.000000	1524.815186	32562.308594
0.000000	1526.133911	32593.867188
0.000000	1527.452637	32682.990234
0.000000	1528.771362	32746.513672
0.000000	1530.090088	32716.787109
0.000000	1531.408813	32812.976563
0.000000	1532.727539	32907.691406
0.000000	1534.046265	32844.386719
0.000000	1535.364990	32933.921875
0.000000	1536.683716	32899.894531
0.000000	1538.002441	32862.714844
0.000000	1539.321167	32719.394531
0.000000	1540.639893	32918.785156
0.000000	1541.958618	32902.281250
0.000000	1543.277344	33137.691406
0.000000	1544.596069	33067.203125
0.000000	1545.914795	33197.359375
0.000000	1547.233521	33058.375000
0.000000	1548.552246	33084.441406
0.000000	1549.870972	33012.558594
0.000000	1551.189697	33078.605469
0.000000	1552.508423	33139.136719
0.000000	1553.827148	33110.972656
0.000000	1555.145874	32994.402344
0.000000	1556.464600	32928.507813
0.000000	1557.783325	33109.273438
0.000000	1559.102051	33278.195313
0.000000	1560.420776	33168.679688
0.000000	1561.739502	33056.113281
0.000000	1563.058228	33019.351563
0.000000	1564.376953	32975.835938
0.000000	1565.695679	33204.132813
0.000000	1567.014404	33133.523438
0.000000	1568.333130	33052.183594
0.000000	1569.651855	33222.238281
0.000000	1570.970581	33280.023438
0.000000	1572.289307	33211.675781
0.000000	1573.608032	33316.632813
0.000000	1574.926758	32997.996094
0.000000	1576.245483	33404.156250
0.000000	1577.564209	33391.789063
0.000000	1578.882935	33456.859375
0.000000	1580.201660	33336.476563
0.000000	1581.520386	33713.109375
0.000000	1582.839111	33723.765625
0.000000	1584.157837	33545.160156
0.000000	1585.476563	33343.988281
0.000000	1586.795288	33317.355469
0.000000	1588.114014	33470.171875
0.000000	1589.432739	33524.769531
0.000000	1590.751465	33454.226563
0.000000	1592.070190	33508.683594
0.000000	1593.388916	33631.949219
0.000000	1594.707642	33541.441406
0.000000	1596.026367	33425.726563
0.000000	1597.345093	33622.324219
0.000000	1598.663818	33849.621094
0.000000	1599.982544	33862.050781
0.000000	1601.301270	33521.109375
0.000000	1602.619995	33457.132813
0.000000	1603.938721	33742.117188
0.000000	1605.257446	34058.796875
0.000000	1606.576172	33775.113281
0.000000	1607.894897	33766.722656
0.000000	1609.213623	33663.421875
0.000000	1610.532349	33863.105469
0.000000	1611.851074	34068.191406
0.000000	1613.169800	33909.597656
0.000000	1614.488525	34066.953125
0.000000	1615.807251	33956.730469
0.000000	1617.125977	34214.070313
0.000000	1618.444702	34323.542969
0.000000	1619.763428	34380.992188
0.000000	1621.082153	34288.585938
0.000000	1622.400879	34241.609375
0.000000	1623.719604	34090.816406
0.000000	1625.038330	34091.679688
0.000000	1626.357056	34329.234375
0.000000	1627.675781	34414.773438
0.000000	1628.994507	34475.398438
0.000000	1630.313232	34530.968750
0.000000	1631.631958	34383.441406
0.000000	1632.950684	34521.835938
0.000000	1634.269409	34763.589844
0.000000	1635.588135	34571.582031
0.000000	1636.906860	34602.507813
0.000000	1638.225586	34828.585938
0.000000	1639.544312	34583.667969
0.000000	1640.863037	34492.289063
0.000000	1642.181763	34668.429688
0.000000	1643.500488	34704.636719
0.000000	1644.819214	34628.148438
0.000000	1646.137939	35022.691406
0.000000	1647.456665	34898.511719
0.000000	1648.775391	34733.500000
0.000000	1650.094116	35095.343750
0.000000	1651.412842	34979.593750
0.000000	1652.731567	34910.824219
0.000000	1654.050293	35102.917969
0.000000	1655.369019	35175.402344
0.000000	1656.687744	35202.203125
0.000000	1658.006470	34961.265625
0.000000	1659.325195	35080.246094
0.000000	1660.643921	35049.031250
0.000000	1661.962646	35054.238281
0.000000	1663.281372	35174.015625
0.000000	1664.600098	35274.234375
0.000000	1665.918823	35090.746094
0.000000	1667.237549	35103.675781
0.000000	1668.556274	35294.429688
0.000000	1669.875000	35325.007813
0.000000	1671.193726	35265.613281
0.000000	1672.512451	35196.617188
0.000000	1673.831177	35273.980469
0.000000	1675.149902	35175.953125
0.000000	1676.468628	35186.925781
0.000000	1677.787354	35176.601563
0.000000	1679.106079	35387.660156
0.000000	1680.424805	35492.140625
0.000000	1681.743530	35375.957031
0.000000	1683.062256	35349.785156
0.000000	1684.380981	35206.140625
0.000000	1685.699707	35168.507813
0.000000	1687.018433	35142.968750
0.000000	1688.337158	35309.335938
0.000000	1689.655884	35536.917969
0.000000	1690.974609	35336.535156
0.000000	1692.293335	35593.839844
0.000000	1693.612061	35142.250000
0.000000	1694.930786	35482.062500
0.000000	1696.249512	35319.414063
0.000000	1697.568237	35626.082031
0.000000	1698.886963	35182.667969
0.000000	1700.205688	35180.554688
0.000000	1701.524414	35211.332031
0.000000	1702.843140	35326.687500
0.000000	1704.161865	35326.957031
0.000000	1705.480591	35221.531250
0.000000	1706.799316	35345.175781
0.000000	1708.118042	35341.437500
0.000000	1709.436768	35494.101563
0.000000	1710.755493	35418.285156
0.000000	1712.074219	35585.843750
0.000000	1713.392944	35545.886719
0.000000	1714.711670	35350.257813
0.000000	1716.030396	35280.414063
0.000000	1717.349121	35437.847656
0.000000	1718.667847	35718.527344
0.000000	1719.986572	35632.937500
0.000000	1721.305298	35552.175781
0.000000	1722.624023	35624.742188
0.000000	1723.942749	35431.339844
0.000000	1725.261475	35444.242188
0.000000	1726.580200	35657.628906
0.000000	1727.898926	35687.187500
0.000000	1729.217651	35696.269531
0.000000	1730.536377	35840.800781
0.000000	1731.855103	35945.187500
0.000000	1733.173828	35843.292969
0.000000	1734.492554	35910.957031
0.000000	1735.811279	35861.414063
0.000000	1737.130005	35735.554688
0.000000	1738.448730	35628.226563
0.000000	1739.767456	35642.589844
0.000000	1741.086182	36133.164063
0.000000	1742.404907	36006.957031
0.000000	1743.723633	36051.425781
0.000000	1745.042358	35962.035156
0.000000	1746.361084	35957.332031
0.000000	1747.679810	36006.355469
0.000000	1748.998535	35988.824219
0.000000	1750.317261	36134.308594
0.000000	1751.635986	36295.273438
0.000000	1752.954712	36249.355469
0.000000	1754.273438	36292.558594
0.000000	1755.592163	36285.726563
0.000000	1756.910889	36208.019531
0.000000	1758.229614	36330.238281
0.000000	1759.548340	36366.023438
0.000000	1760.867065	36364.742188
0.000000	1762.185791	36477.714844
0.000000	1763.504517	36621.710938
0.000000	1764.823242	36290.218750
0.000000	1766.141968	36451.808594
0.000000	1767.460693	36585.550781
0.000000	1768.779419	36581.597656
0.000000	1770.098145	36703.613281
0.000000	1771.416870	36586.074219
0.000000	1772.735596	36495.359375
0.000000	1774.054321	36706.671875
0.000000	1775.373047	36462.222656
0.000000	1776.691772	36703.769531
0.000000	1778.010498	36780.031250
0.000000	1779.329224	36689.359375
0.000000	1780.647949	36729.167969
0.000000	1781.966675	36829.195313
0.000000	1783.285400	36858.882813
0.000000	1784.604126	36877.503906
0.000000	1785.922852	36864.312500
0.000000	1787.241577	36741.980469
0.000000	1788.560303	36611.023438
0.000000	1789.879028	36523.484375
0.000000	1791.197754	36530.855469
0.000000	1792.516479	36636.007813
0.000000	1793.835205	36909.273438
0.000000	1795.153931	37091.011719
0.000000	1796.472656	36879.179688
0.000000	1797.791382	36740.609375
0.000000	1799.110107	36773.093750
0.000000	1800.428833	36835.039063
0.000000	1801.747559	37022.300781
0.000000	1803.066284	37035.304688
0.000000	1804.385010	36929.671875
0.000000	1805.703735	36901.296875
0.000000	1807.022461	36817.988281
0.000000	1808.341187	36746.667969
0.000000	1809.659912	36739.179688
0.000000	1810.978638	36844.046875
0.000000	1812.297363	36651.496094
0.000000	1813.616089	36691.039063
0.000000	1814.934814	36617.351563
0.000000	1816.253540	36680.968750
0.000000	1817.572266	36670.511719
0.000000	1818.890991	37066.156250
0.000000	1820.209717	36798.031250
0.000000	1821.528442	36831.476563
0.000000	1822.847168	36730.437500
0.000000	1824.165894	36923.992188
0.000000	1825.484619	36789.957031
0.000000	1826.803345	36934.058594
0.000000	1828.122070	36720.703125
0.000000	1829.440796	36805.539063
0.000000	1830.759521	37046.804688
0.000000	1832.078247	36960.156250
0.000000	1833.396973	36994.933594
0.000000	1834.715698	37028.101563
0.000000	1836.034424	36994.171875
0.000000	1837.353149	36781.683594
0.000000	1838.671875	37110.382813
0.000000	1839.990601	37211.679688
0.000000	1841.309326	37419.535156
0.000000	1842.628052	37272.632813
0.000000	1843.946777	37259.640625
0.000000	1845.265503	37122.531250
0.000000	1846.584229	37410.621094
0.000000	1847.902954	37577.875000
0.000000	1849.221680	37355.257813
0.000000	1850.540405	37323.285156
0.000000	1851.859131	37589.195313
0.000000	1853.177856	37273.113281
0.000000	1854.496582	37160.464844
0.000000	1855.815308	37408.753906
0.000000	1857.134033	37824.082031
0.000000	1858.452759	37310.628906
0.000000	1859.771484	37595.664063
0.000000	1861.090210	37627.472656
0.000000	1862.408936	37623.457031
0.000000	1863.727661	37580.304688
0.000000	1865.046387	37872.925781
0.000000	1866.365112	37587.238281
0.000000	1867.683838	37864.769531
0.000000	1869.002563	37821.375000
0.000000	1870.321289	37675.933594
0.000000	1871.640015	37954.890625
0.000000	1872.958740	37824.582031
0.000000	1874.277466	37768.503906
0.000000	1875.596191	38162.511719
0.000000	1876.914917	37896.199219
0.000000	1878.233643	38383.226563
0.000000	1879.552368	37760.933594
0.000000	1880.871094	38149.292969
0.000000	1882.189819	37859.671875
0.000000	1883.508545	37825.414063
0.000000	1884.827271	38245.660156
0.000000	1886.145996	37831.761719
0.000000	1887.464722	38188.058594
0.000000	1888.783447	38126.777344
0.000000	1890.102173	38037.406250
0.000000	1891.420898	38179.898438
0.000000	1892.739624	37880.960938
0.000000	1894.058350	38337.582031
0.000000	1895.377075	38392.937500
0.000000	1896.695801	38174.640625
0.000000	1898.014526	38416.750000
0.000000	1899.333252	38305.187500
0.000000	1900.651978	38210.082031
0.000000	1901.970703	38324.828125
0.000000	1903.289429	38298.835938
0.000000	1904.608154	38216.218750
0.000000	1905.926880	38438.050781
0.000000	1907.245605	38442.105469
0.000000	1908.564331	38303.429688
0.000000	1909.883057	38134.843750
0.000000	1911.201782	38424.496094
0.000000	1912.520508	38043.828125
0.000000	1913.839233	38178.246094
0.000000	1915.157959	38101.593750
0.000000	1916.476685	38301.472656
0.000000	1917.795410	38198.050781
0.000000	1919.114136	38240.812500
0.000000	1920.432861	38404.476563
0.000000	1921.751587	38352.253906
0.000000	1923.070313	38410.953125
0.000000	1924.389038	38569.191406
0.000000	1925.707764	38210.746094
0.000000	1927.026489	38391.785156
0.000000	1928.345215	38344.062500
0.000000	1929.663940	38468.230469
0.000000	1930.982666	38625.218750
0.000000	1932.301392	38027.417969
0.000000	1933.620117	38431.457031
0.000000	1934.938843	38447.570313
0.000000	1936.257568	38441.074219
0.000000	1937.576294	37797.375000
0.000000	1938.895020	38228.941406
0.000000	1940.213745	38032.320313
0.000000	1941.532471	38283.816406
0.000000	1942.851196	38360.074219
0.000000	1944.169922	38539.488281
0.000000	1945.488647	38388.257813
0.000000	1946.807373	38644.656250
0.000000	1948.126099	38364.218750
0.000000	1949.444824	38532.363281
0.000000	1950.763550	38493.546875
0.000000	1952.082275	38472.238281
0.000000	1953.401001	38539.757813
0.000000	1954.719727	38290.421875
0.000000	1956.038452	38589.824219
0.000000	1957.357178	38757.816406
0.000000	1958.675903	38511.625000
0.000000	1959.994629	38911.414063
0.000000	1961.313354	38570.160156
0.000000	1962.632080	38557.871094
0.000000	1963.950806	38652.644531
0.000000	1965.269531	38779.242188
0.000000	1966.588257	38919.242188
0.000000	1967.906982	38747.113281
0.000000	1969.225708	38574.937500
0.000000	1970.544434	38904.804688
0.000000	1971.863159	39028.382813
0.000000	1973.181885	38835.667969
0.000000	1974.500610	38839.515625
0.000000	1975.819336	38912.828125
0.000000	1977.138062	38987.832031
0.000000	1978.456787	39034.417969
0.000000	1979.775513	39088.394531
0.000000	1981.094238	39132.839844
0.000000	1982.412964	39000.953125
0.000000	1983.731689	38900.355469
0.000000	1985.050415	38934.410156
0.000000	1986.369141	39220.152344
0.000000	1987.687866	39215.035156
0.000000	1989.006592	39371.242188
0.000000	1990.325317	39197.941406
0.000000	1991.644043	39276.906250
0.000000	1992.962769	39408.085938
0.000000	1994.281494	39145.460938
0.000000	1995.600220	39370.925781
0.000000	1996.918945	39501.789063
0.000000	1998.237671	39581.531250
0.000000	1999.556396	39607.125000
0.000000	2000.875122	39552.667969
0.000000	2002.193848	39518.273438
0.000000	2003.512573	39678.167969
0.000000	2004.831299	39672.296875
0.000000	2006.150024	39525.214844
0.000000	2007.468750	39591.140625
0.000000	2008.787476	39745.468750
0.000000	2010.106201	39698.582031
0.000000	2011.424927	39493.464844
0.000000	2012.743652	39772.511719
0.000000	2014.062378	39872.660156
0.000000	2015.381104	39717.144531
0.000000	2016.699829	39789.109375
0.000000	2018.018555	39642.679688
0.000000	2019.337280	39564.070313
0.000000	2020.656006	39572.417969
0.000000	2021.974731	39512.019531
0.000000	2023.293457	39605.632813
0.000000	2024.612183	39712.957031
0.000000	2025.930908	39667.160156
0.000000	2027.249634	39808.589844
0.000000	2028.568359	39595.074219
0.000000	2029.887085	39868.117188
0.000000	2031.205811	39790.988281
0.000000	2032.524536	39795.992188
0.000000	2033.843262	39780.683594
0.000000	2035.161987	39759.355469
0.000000	2036.480713	40051.460938
0.000000	2037.799438	39899.285156
0.000000	2039.118164	39910.894531
0.000000	2040.436890	39581.328125
0.000000	2041.755615	39908.414063
0.000000	2043.074341	39925.667969
0.000000	2044.393066	39908.449219
0.000000	2045.711792	39962.554688
0.000000	2047.030518	39745.757813
0.000000	2048.349121	39704.695313
0.000000	2049.667725	39891.515625
0.000000	2050.986328	39747.574219
0.000000	2052.304932	39743.945313
0.000000	2053.623535	40001.105469
0.000000	2054.942139	39890.785156
0.000000	2056.260742	40170.546875
0.000000	2057.579346	39634.652344
0.000000	2058.897949	39721.148438
0.000000	2060.216553	39841.117188
0.000000	2061.535156	39815.585938
0.000000	2062.853760	40109.042969
0.000000	2064.172363	40077.859375
0.000000	2065.490967	39980.714844
0.000000	2066.809570	39900.156250
0.000000	2068.128174	39993.734375
0.000000	2069.446777	40005.605469
0.000000	2070.765381	39850.921875
0.000000	2072.083984	40002.531250
0.000000	2073.402588	39913.898438
0.000000	2074.721191	39914.343750
0.000000	2076.039795	40139.785156
0.000000	2077.358398	40016.519531
0.000000	2078.677002	40002.558594
0.000000	2079.995605	40089.632813
0.000000	2081.314209	40036.648438
0.000000	2082.632813	40317.222656
0.000000	2083.951416	40312.394531
0.000000	2085.270020	40105.355469
0.000000	2086.588623	40155.265625
0.000000	2087.907227	40146.101563
0.000000	2089.225830	40154.632813
0.000000	2090.544434	40018.460938
0.000000	2091.863037	40300.613281
0.000000	2093.181641	39985.957031
0.000000	2094.500244	40402.281250
0.000000	2095.818848	40222.562500
0.000000	2097.137451	40129.941406
0.000000	2098.456055	40357.527344
0.000000	2099.774658	39969.554688
0.000000	2101.093262	40235.031250
0.000000	2102.411865	40504.339844
0.000000	2103.730469	40694.222656
0.000000	2105.049072	40409.714844
0.000000	2106.367676	40290.433594
0.000000	2107.686279	40243.054688
0.000000	2109.004883	40193.457031
0.000000	2110.323486	40548.199219
0.000000	2111.642090	40553.097656
0.000000	2112.960693	40800.761719
0.000000	2114.279297	40730.234375
0.000000	2115.597900	40628.242188
0.000000	2116.916504	40719.304688
0.000000	2118.235107	40568.933594
0.000000	2119.553711	40605.496094
0.000000	2120.872314	40756.722656
0.000000	2122.190918	40640.355469
0.000000	2123.509521	40626.109375
0.000000	2124.828125	40503.019531
0.000000	2126.146729	40477.914063
0.000000	2127.465332	40664.375000
0.000000	2128.783936	40546.175781
0.000000	2130.102539	40737.210938
0.000000	2131.421143	40778.035156
0.000000	2132.739746	40882.343750
0.000000	2134.058350	40701.445313
0.000000	2135.376953	40622.414063
0.000000	2136.695557	40467.007813
0.000000	2138.014160	40949.109375
0.000000	2139.332764	40809.117188
0.000000	2140.651367	40500.898438
0.000000	2141.969971	40904.707031
0.000000	2143.288574	40783.667969
0.000000	2144.607178	40653.109375
0.000000	2145.925781	40724.996094
0.000000	2147.244385	40833.328125
0.000000	2148.562988	40978.757813
0.000000	2149.881592	40733.031250
0.000000	2151.200195	40764.523438
0.000000	2152.518799	41123.628906
0.000000	2153.837402	41123.742188
0.000000	2155.156006	41336.582031
0.000000	2156.474609	41103.445313
0.000000	2157.793213	40969.960938
0.000000	2159.111816	40794.058594
0.000000	2160.430420	41039.246094
0.000000	2161.749023	41002.207031
0.000000	2163.067627	40789.996094
0.000000	2164.386230	40825.437500
0.000000	2165.704834	40955.808594
0.000000	2167.023438	41012.503906
0.000000	2168.342041	41058.316406
0.000000	2169.660645	40809.414063
0.000000	2170.979248	40943.671875
0.000000	2172.297852	40888.738281
0.000000	2173.616455	40732.585938
0.000000	2174.935059	40977.011719
0.000000	2176.253662	41076.554688
0.000000	2177.572266	40835.152344
0.000000	2178.890869	41131.820313
0.000000	2180.209473	41103.902344
0.000000	2181.528076	40922.335938
0.000000	2182.846680	40632.523438
0.000000	2184.165283	40643.460938
0.000000	2185.483887	40933.125000
0.000000	2186.802490	40951.875000
0.000000	2188.121094	40862.960938
0.000000	2189.439697	40702.488281
0.000000	2190.758301	40962.503906
0.000000	2192.076904	40981.511719
0.000000	2193.395508	40870.679688
0.000000	2194.714111	40733.164063
0.000000	2196.032715	40832.410156
0.000000	2197.351318	40921.253906
0.000000	2198.669922	40921.386719
0.000000	2199.988525	40908.425781
0.000000	2201.307129	40873.343750
0.000000	2202.625732	41052.015625
0.000000	2203.944336	41045.105469
0.000000	2205.262939	40681.773438
0.000000	2206.581543	41008.105469
0.000000	2207.900146	40976.511719
0.000000	2209.218750	41338.949219
0.000000	2210.537354	41370.562500
0.000000	2211.855957	40926.460938
0.000000	2213.174561	41422.593750
0.000000	2214.493164	41219.628906
0.000000	2215.811768	41251.726563
0.000000	2217.130371	40947.347656
0.000000	2218.448975	41082.562500
0.000000	2219.767578	41262.496094
0.000000	2221.086182	41226.996094
0.000000	2222.404785	41270.894531
0.000000	2223.723389	41397.656250
0.000000	2225.041992	41408.476563
0.000000	2226.360596	41447.640625
0.000000	2227.679199	41411.785156
0.000000	2228.997803	41442.535156
0.000000	2230.316406	41426.429688
0.000000	2231.635010	41193.925781
0.000000	2232.953613	41124.332031
0.000000	2234.272217	41301.640625
0.000000	2235.590820	41302.511719
0.000000	2236.909424	41638.949219
0.000000	2238.228027	41082.792969
0.000000	2239.546631	41704.332031
0.000000	2240.865234	41261.683594
0.000000	2242.183838	41433.761719
0.000000	2243.502441	41364.015625
0.000000	2244.821045	41506.734375
0.000000	2246.139648	41610.773438
0.000000	2247.458252	41423.179688
0.000000	2248.776855	41133.234375
0.000000	2250.095459	41375.402344
0.000000	2251.414063	41307.746094
0.000000	2252.732666	41493.003906
0.000000	2254.051270	41561.949219
0.000000	2255.369873	41431.093750
0.000000	2256.688477	41453.871094
0.000000	2258.007080	41404.242188
0.000000	2259.325684	41374.039063
0.000000	2260.644287	41463.957031
0.000000	2261.962891	41571.492188
0.000000	2263.281494	41540.503906
0.000000	2264.600098	41565.183594
0.000000	2265.918701	41630.550781
0.000000	2267.237305	41419.414063
0.000000	2268.555908	41644.808594
0.000000	2269.874512	41476.218750
0.000000	2271.193115	41207.511719
0.000000	2272.511719	41293.617188
0.000000	2273.830322	41601.265625
0.000000	2275.148926	41811.101563
0.000000	2276.467529	41606.492188
0.000000	2277.786133	41501.503906
0.000000	2279.104736	41482.609375
0.000000	2280.423340	41549.054688
0.000000	2281.741943	41516.507813
0.000000	2283.060547	41423.207031
0.000000	2284.379150	41348.339844
0.000000	2285.697754	41642.117188
0.000000	2287.016357	41809.285156
0.000000	2288.334961	41407.800781
0.000000	2289.653564	41280.187500
0.000000	2290.972168	41472.316406
0.000000	2292.290771	40960.121094
0.000000	2293.609375	41460.648438
0.000000	2294.927979	41802.195313
0.000000	2296.246582	41503.722656
0.000000	2297.565186	41585.214844
0.000000	2298.883789	41259.132813
0.000000	2300.202393	41359.667969
0.000000	2301.520996	41413.667969
0.000000	2302.839600	41591.281250
0.000000	2304.158203	41558.886719
0.000000	2305.476807	41363.550781
0.000000	2306.795410	41458.308594
0.000000	2308.114014	41676.160156
0.000000	2309.432617	41367.933594
0.000000	2310.751221	41556.695313
0.000000	2312.069824	41736.164063
0.000000	2313.388428	41740.281250
0.000000	2314.707031	41510.539063
0.000000	2316.025635	41793.296875
0.000000	2317.344238	41689.414063
0.000000	2318.662842	41483.593750
0.000000	2319.981445	41578.179688
0.000000	2321.300049	41773.843750
0.000000	2322.618652	41679.054688
0.000000	2323.937256	41560.472656
0.000000	2325.255859	41659.312500
0.000000	2326.574463	41595.437500
0.000000	2327.893066	41634.886719
0.000000	2329.211670	41731.972656
0.000000	2330.530273	41742.589844
0.000000	2331.848877	41856.824219
0.000000	2333.167480	41750.750000
0.000000	2334.486084	41841.230469
0.000000	2335.804688	41865.894531
0.000000	2337.123291	41659.828125
0.000000	2338.441895	41977.117188
0.000000	2339.760498	41635.480469
0.000000	2341.079102	41866.703125
0.000000	2342.397705	42004.691406
0.000000	2343.716309	41752.371094
0.000000	2345.034912	41587.179688
0.000000	2346.353516	41730.378906
0.000000	2347.672119	41812.769531
0.000000	2348.990723	41947.109375
0.000000	2350.309326	41869.480469
0.000000	2351.627930	41859.269531
0.000000	2352.946533	41982.246094
0.000000	2354.265137	42157.269531
0.000000	2355.583740	41937.523438
0.000000	2356.902344	42146.269531
0.000000	2358.220947	42238.675781
0.000000	2359.539551	41652.582031
0.000000	2360.858154	42296.941406
0.000000	2362.176758	42063.214844
0.000000	2363.495361	42214.339844
0.000000	2364.813965	42432.398438
0.000000	2366.132568	42332.312500
0.000000	2367.451172	42079.082031
0.000000	2368.769775	41833.054688
0.000000	2370.088379	41954.925781
0.000000	2371.406982	42202.648438
0.000000	2372.725586	42025.832031
0.000000	2374.044189	42053.886719
0.000000	2375.362793	41954.953125
0.000000	2376.681396	42145.625000
0.000000	2378.000000	42237.242188
0.000000	2379.318604	42419.265625
0.000000	2380.637207	42237.214844
0.000000	2381.955811	42332.238281
0.000000	2383.274414	42450.734375
0.000000	2384.593018	42382.132813
0.000000	2385.911621	42174.449219
0.000000	2387.230225	42107.765625
0.000000	2388.548828	42230.531250
0.000000	2389.867432	42501.324219
0.000000	2391.186035	42285.953125
0.000000	2392.504639	42137.062500
0.000000	2393.823242	42311.593750
0.000000	2395.141846	42161.058594
0.000000	2396.460449	42230.207031
0.000000	2397.779053	42281.371094
0.000000	2399.097656	42611.777344
0.000000	2400.416260	42225.105469
0.000000	2401.734863	42403.750000
0.000000	2403.053467	42318.941406
0.000000	2404.372070	42538.144531
0.000000	2405.690674	42355.382813
0.000000	2407.009277	42330.855469
0.000000	2408.327881	42061.046875
0.000000	2409.646484	41946.000000
0.000000	2410.965088	42088.898438
0.000000	2412.283691	42234.804688
0.000000	2413.602295	42225.871094
0.000000	2414.920898	42171.953125
0.000000	2416.239502	41806.406250
0.000000	2417.558105	41695.621094
0.000000	2418.876709	42263.906250
0.000000	2420.195313	42537.531250
0.000000	2421.513916	42528.628906
0.000000	2422.832520	42315.410156
0.000000	2424.151123	42363.800781
0.000000	2425.469727	42286.019531
0.000000	2426.788330	42108.449219
0.000000	2428.106934	42267.062500
0.000000	2429.425537	42388.644531
0.000000	2430.744141	42242.421875
0.000000	2432.062744	42277.554688
0.000000	2433.381348	42110.117188
0.000000	2434.699951	42386.789063
0.000000	2436.018555	42405.992188
0.000000	2437.337158	42269.160156
0.000000	2438.655762	42383.828125
0.000000	2439.974365	42352.562500
0.000000	2441.292969	42227.937500
0.000000	2442.611572	42257.367188
0.000000	2443.930176	42173.222656
0.000000	2445.248779	42252.855469
0.000000	2446.567383	42556.250000
0.000000	2447.885986	42521.390625
0.000000	2449.204590	42435.335938
0.000000	2450.523193	42100.625000
0.000000	2451.841797	42438.011719
0.000000	2453.160400	42206.039063
0.000000	2454.479004	42204.781250
0.000000	2455.797607	42403.074219
0.000000	2457.116211	42584.996094
0.000000	2458.434814	42424.000000
0.000000	2459.753418	42600.835938
0.000000	2461.072021	42507.492188
0.000000	2462.390625	42380.781250
0.000000	2463.709229	42589.515625
0.000000	2465.027832	42723.808594
0.000000	2466.346436	42512.609375
0.000000	2467.665039	42501.093750
0.000000	2468.983643	42262.332031
0.000000	2470.302246	42574.488281
0.000000	2471.620850	42287.734375
0.000000	2472.939453	42688.726563
0.000000	2474.258057	42759.765625
0.000000	2475.576660	42597.453125
0.000000	2476.895264	42603.972656
0.000000	2478.213867	42866.007813
0.000000	2479.532471	42842.468750
0.000000	2480.851074	42751.207031
0.000000	2482.169678	42737.746094
0.000000	2483.488281	42785.535156
0.000000	2484.806885	42326.421875
0.000000	2486.125488	42659.699219
0.000000	2487.444092	42711.957031
0.000000	2488.762695	42728.433594
0.000000	2490.081299	42752.812500
0.000000	2491.399902	43020.605469
0.000000	2492.718506	42835.511719
0.000000	2494.037109	42748.367188
0.000000	2495.355713	42746.386719
0.000000	2496.674316	42572.707031
0.000000	2497.992920	42612.054688
0.000000	2499.311523	42706.890625
0.000000	2500.630127	42662.210938
0.000000	2501.948730	42819.273438
0.000000	2503.267334	42765.722656
0.000000	2504.585938	42745.644531
0.000000	2505.904541	42796.984375
0.000000	2507.223145	42693.964844
0.000000	2508.541748	42648.429688
0.000000	2509.860352	42604.609375
0.000000	2511.178955	42487.359375
0.000000	2512.497559	42727.464844
0.000000	2513.816162	42913.695313
0.000000	2515.134766	43210.273438
0.000000	2516.453369	42575.402344
0.000000	2517.771973	42477.011719
0.000000	2519.090576	42702.441406
0.000000	2520.409180	42664.957031
0.000000	2521.727783	42780.296875
0.000000	2523.046387	42739.328125
0.000000	2524.364990	42568.097656
0.000000	2525.683594	42505.660156
0.000000	2527.002197	42544.535156
0.000000	2528.320801	42692.835938
0.000000	2529.639404	42783.554688
0.000000	2530.958008	42514.164063
0.000000	2532.276611	42329.031250
0.000000	2533.595215	42788.109375
0.000000	2534.913818	42514.722656
0.000000	2536.232422	42375.902344
0.000000	2537.551025	42401.199219
0.000000	2538.869629	42599.171875
0.000000	2540.188232	42468.042969
0.000000	2541.506836	42355.851563
0.000000	2542.825439	42430.429688
0.000000	2544.144043	42509.898438
0.000000	2545.462646	42308.515625
0.000000	2546.781250	42228.679688
0.000000	2548.099854	42254.828125
0.000000	2549.418457	42325.417969
0.000000	2550.737061	42380.828125
0.000000	2552.055664	42417.269531
0.000000	2553.374268	42417.398438
0.000000	2554.692871	42138.332031
0.000000	2556.011475	42434.593750
0.000000	2557.330078	42610.738281
0.000000	2558.648682	42419.730469
0.000000	2559.967285	42544.824219
0.000000	2561.285889	42197.226563
0.000000	2562.604492	42409.273438
0.000000	2563.923096	42552.875000
0.000000	2565.241699	42461.023438
0.000000	2566.560303	42166.851563
0.000000	2567.878906	42407.382813
0.000000	2569.197510	42465.144531
0.000000	2570.516113	42241.886719
0.000000	2571.834717	42383.007813
0.000000	2573.153320	42589.250000
0.000000	2574.471924	42521.296875
0.000000	2575.790527	42807.562500
0.000000	2577.109131	42536.320313
0.000000	2578.427734	42345.691406
0.000000	2579.746338	42637.214844
0.000000	2581.064941	42609.980469
0.000000	2582.383545	42614.621094
0.000000	2583.702148	42761.265625
0.000000	2585.020752	42244.277344
0.000000	2586.339355	42046.757813
0.000000	2587.657959	42932.902344
0.000000	2588.976563	42355.257813
0.000000	2590.295166	42545.304688
0.000000	2591.613770	42611.042969
0.000000	2592.932373	42641.511719
0.000000	2594.250977	42535.984375
0.000000	2595.569580	42792.660156
0.000000	2596.888184	42706.519531
0.000000	2598.206787	42833.730469
0.000000	2599.525391	42626.164063
0.000000	2600.843994	42592.152344
0.000000	2602.162598	42841.613281
0.000000	2603.481201	42883.179688
0.000000	2604.799805	42936.160156
0.000000	2606.118408	42611.921875
0.000000	2607.437012	42804.695313
0.000000	2608.755615	42649.949219
0.000000	2610.074219	42585.296875
0.000000	2611.392822	42878.746094
0.000000	2612.711426	42746.324219
0.000000	2614.030029	42834.726563
0.000000	2615.348633	43068.046875
0.000000	2616.667236	42998.925781
0.000000	2617.985840	42908.765625
0.000000	2619.304443	42931.265625
0.000000	2620.623047	43069.578125
0.000000	2621.941650	42939.960938
0.000000	2623.260254	42822.433594
0.000000	2624.578857	42931.011719
0.000000	2625.897461	42975.324219
0.000000	2627.216064	43084.125000
0.000000	2628.534668	42799.304688
0.000000	2629.853271	42847.667969
0.000000	2631.171875	42988.054688
0.000000	2632.490479	42967.546875
0.000000	2633.809082	43004.738281
0.000000	2635.127686	42880.605469
0.000000	2636.446289	43192.277344
0.000000	2637.764893	43025.339844
0.000000	2639.083496	42892.359375
0.000000	2640.402100	42901.324219
0.000000	2641.720703	42775.820313
0.000000	2643.039307	42990.910156
0.000000	2644.357910	42775.417969
0.000000	2645.676514	42956.445313
0.000000	2646.995117	43046.613281
0.000000	2648.313721	42902.457031
0.000000	2649.632324	43125.632813
0.000000	2650.950928	42933.695313
0.000000	2652.269531	43112.996094
0.000000	2653.588135	42938.738281
0.000000	2654.906738	42975.863281
0.000000	2656.225342	43045.945313
0.000000	2657.543945	42886.593750
0.000000	2658.862549	42831.218750
0.000000	2660.181152	42774.703125
0.000000	2661.499756	42775.980469
0.000000	2662.818359	42895.031250
0.000000	2664.136963	42903.175781
0.000000	2665.455566	42977.574219
0.000000	2666.774170	42750.546875
0.000000	2668.092773	43083.152344
0.000000	2669.411377	42966.367188
0.000000	2670.729980	43092.585938
0.000000	2672.048584	42979.898438
0.000000	2673.367188	42663.191406
0.000000	2674.685791	42681.707031
0.000000	2676.004395	42943.820313
0.000000	2677.322998	43042.500000
0.000000	2678.641602	42883.238281
0.000000	2679.960205	42873.453125
0.000000	2681.278809	43013.332031
0.000000	2682.597412	42983.359375
0.000000	2683.916016	43101.046875
0.000000	2685.234619	42998.296875
0.000000	2686.553223	43039.097656
0.000000	2687.871826	42800.828125
0.000000	2689.190430	42736.238281
0.000000	2690.509033	42829.207031
0.000000	2691.827637	42883.062500
0.000000	2693.146240	42876.988281
0.000000	2694.464844	42747.347656
0.000000	2695.783447	42822.085938
0.000000	2697.102051	42976.992188
0.000000	2698.420654	42706.906250
0.000000	2699.739258	42857.921875
0.000000	2701.057861	43008.648438
0.000000	2702.376465	43268.875000
0.000000	2703.695068	43062.695313
0.000000	2705.013672	42966.191406
0.000000	2706.332275	42660.847656
0.000000	2707.650879	43034.027344
0.000000	2708.969482	43182.523438
0.000000	2710.288086	42549.957031
0.000000	2711.606689	42859.320313
0.000000	2712.925293	43125.496094
0.000000	2714.243896	42895.867188
0.000000	2715.562500	42855.050781
0.000000	2716.881104	42679.585938
0.000000	2718.199707	42725.132813
0.000000	2719.518311	42804.960938
0.000000	2720.836914	42778.890625
0.000000	2722.155518	43112.613281
0.000000	2723.474121	42813.546875
0.000000	2724.792725	43015.156250
0.000000	2726.111328	42718.597656
0.000000	2727.429932	42665.730469
0.000000	2728.748535	42848.585938
0.000000	2730.067139	42984.433594
0.000000	2731.385742	42689.894531
0.000000	2732.704346	42921.718750
0.000000	2734.022949	43129.585938
0.000000	2735.341553	42802.550781
0.000000	2736.660156	42729.062500
0.000000	2737.978760	42949.890625
0.000000	2739.297363	43069.058594
0.000000	2740.615967	42999.121094
0.000000	2741.934570	42816.789063
0.000000	2743.253174	43148.343750
0.000000	2744.571777	43009.050781
0.000000	2745.890381	42988.757813
0.000000	2747.208984	43099.550781
0.000000	2748.527588	43115.914063
0.000000	2749.846191	42811.382813
0.000000	2751.164795	42743.937500
0.000000	2752.483398	42829.687500
0.000000	2753.802002	43037.683594
0.000000	2755.120605	42821.691406
0.000000	2756.439209	42823.136719
0.000000	2757.757813	42727.910156
0.000000	2759.076416	42971.792969
0.000000	2760.395020	42870.980469
0.000000	2761.713623	42873.089844
0.000000	2763.032227	42905.941406
0.000000	2764.350830	43170.277344
0.000000	2765.669434	42934.671875
0.000000	2766.988037	42952.156250
0.000000	2768.306641	43113.699219
0.000000	2769.625244	42673.777344
0.000000	2770.943848	42640.488281
0.000000	2772.262451	42783.433594
0.000000	2773.581055	42481.472656
0.000000	2774.899658	42340.894531
0.000000	2776.218262	42905.421875
0.000000	2777.536865	42956.832031
0.000000	2778.855469	42866.632813
0.000000	2780.174072	42822.562500
0.000000	2781.492676	42738.785156
0.000000	2782.811279	42845.042969
0.000000	2784.129883	42768.562500
0.000000	2785.448486	42698.101563
0.000000	2786.767090	42783.234375
0.000000	2788.085693	42741.453125
0.000000	2789.404297	42680.363281
0.000000	2790.722900	42738.339844
0.000000	2792.041504	42766.320313
0.000000	2793.360107	42937.875000
0.000000	2794.678711	42931.902344
0.000000	2795.997314	42796.378906
0.000000	2797.315918	42795.843750
0.000000	2798.634521	42799.105469
0.000000	2799.953125	43086.640625
0.000000	2801.271729	42962.066406
0.000000	2802.590332	42958.609375
0.000000	2803.908936	43022.468750
0.000000	2805.227539	42992.273438
0.000000	2806.546143	42655.875000
0.000000	2807.864746	42789.308594
0.000000	2809.183350	42920.316406
0.000000	2810.501953	43016.761719
0.000000	2811.820557	43025.699219
0.000000	2813.139160	42717.417969
0.000000	2814.457764	42678.152344
0.000000	2815.776367	43070.832031
0.000000	2817.094971	42814.960938
0.000000	2818.413574	42772.269531
0.000000	2819.732178	43096.859375
0.000000	2821.050781	43079.054688
0.000000	2822.369385	42945.031250
0.000000	2823.687988	42692.875000
0.000000	2825.006592	42946.644531
0.000000	2826.325195	43244.261719
0.000000	2827.643799	42844.359375
0.000000	2828.962402	42808.210938
0.000000	2830.281006	42783.835938
0.000000	2831.599609	42901.757813
0.000000	2832.918213	42953.777344
0.000000	2834.236816	42965.988281
0.000000	2835.555420	42872.960938
0.000000	2836.874023	42784.527344
0.000000	2838.192627	43069.023438
0.000000	2839.511230	43170.746094
0.000000	2840.829834	43093.085938
0.000000	2842.148438	42693.503906
0.000000	2843.467041	43426.468750
0.000000	2844.785645	42669.875000
0.000000	2846.104248	42844.691406
0.000000	2847.422852	43033.214844
0.000000	2848.741455	42990.285156
0.000000	2850.060059	43107.222656
0.000000	2851.378662	42987.703125
0.000000	2852.697266	43176.742188
0.000000	2854.015869	42779.476563
0.000000	2855.334473	43107.851563
0.000000	2856.653076	42978.632813
0.000000	2857.971680	42998.242188
0.000000	2859.290283	43188.441406
0.000000	2860.608887	43044.183594
0.000000	2861.927490	42999.371094
0.000000	2863.246094	42926.640625
0.000000	2864.564697	43120.914063
0.000000	2865.883301	42976.312500
0.000000	2867.201904	42962.812500
0.000000	2868.520508	42845.574219
0.000000	2869.839111	42965.105469
0.000000	2871.157715	42774.332031
0.000000	2872.476318	42797.988281
0.000000	2873.794922	42936.851563
0.000000	2875.113525	43023.933594
0.000000	2876.432129	43236.648438
0.000000	2877.750732	43114.417969
0.000000	2879.069336	42903.917969
0.000000	2880.387939	42924.359375
0.000000	2881.706543	42635.226563
0.000000	2883.025146	42834.046875
0.000000	2884.343750	42899.265625
0.000000	2885.662354	42955.289063
0.000000	2886.980957	43261.441406
0.000000	2888.299561	42855.289063
0.000000	2889.618164	42858.730469
0.000000	2890.936768	42779.472656
0.000000	2892.255371	42708.875000
0.000000	2893.573975	42496.949219
0.000000	2894.892578	42749.261719
0.000000	2896.211182	43014.242188
0.000000	2897.529785	42832.195313
0.000000	2898.848389	42702.074219
0.000000	2900.166992	42352.730469
0.000000	2901.485596	42658.093750
0.000000	2902.804199	42748.015625
0.000000	2904.122803	42858.500000
0.000000	2905.441406	42708.523438
0.000000	2906.760010	42699.082031
0.000000	2908.078613	42633.246094
0.000000	2909.397217	42704.851563
0.000000	2910.715820	42568.589844
0.000000	2912.034424	42530.238281
0.000000	2913.353027	42796.308594
0.000000	2914.671631	42590.230469
0.000000	2915.990234	42517.687500
0.000000	2917.308838	42607.843750
0.000000	2918.627441	42400.507813
0.000000	2919.946045	42342.824219
0.000000	2921.264648	42659.351563
0.000000	2922.583252	42530.429688
0.000000	2923.901855	42511.156250
0.000000	2925.220459	42274.644531
0.000000	2926.539063	42826.707031
0.000000	2927.857666	42557.464844
0.000000	2929.176270	42761.472656
0.000000	2930.494873	42577.417969
0.000000	2931.813477	42593.585938
0.000000	2933.132080	42972.859375
0.000000	2934.450684	42291.500000
0.000000	2935.769287	42498.308594
0.000000	2937.087891	42703.589844
0.000000	2938.406494	42831.472656
0.000000	2939.725098	42629.070313
0.000000	2941.043701	42742.320313
0.000000	2942.362305	43041.324219
0.000000	2943.680908	42972.894531
0.000000	2944.999512	42654.101563
0.000000	2946.318115	42590.007813
0.000000	2947.636719	42617.378906
0.000000	2948.955322	42981.675781
0.000000	2950.273926	42441.066406
0.000000	2951.592529	42595.171875
0.000000	2952.911133	42480.488281
0.000000	2954.229736	42938.898438
0.000000	2955.548340	42867.234375
0.000000	2956.866943	42650.699219
0.000000	2958.185547	42487.753906
0.000000	2959.504150	42701.378906
0.000000	2960.822754	42556.757813
0.000000	2962.141357	42438.632813
0.000000	2963.459961	42348.976563
0.000000	2964.778564	42646.164063
0.000000	2966.097168	42752.121094
0.000000	2967.415771	42415.230469
0.000000	2968.734375	42454.257813
0.000000	2970.052979	42715.316406
0.000000	2971.371582	42773.214844
0.000000	2972.690186	42726.128906
0.000000	2974.008789	42765.226563
0.000000	2975.327393	42524.851563
0.000000	2976.645996	42526.656250
0.000000	2977.964600	42680.933594
0.000000	2979.283203	42704.792969
0.000000	2980.601807	42563.691406
0.000000	2981.920410	42469.394531
0.000000	2983.239014	42723.468750
0.000000	2984.557617	42351.929688
0.000000	2985.876221	42596.019531
0.000000	2987.194824	42517.246094
0.000000	2988.513428	42666.898438
0.000000	2989.832031	42868.144531
0.000000	2991.150635	43058.257813
0.000000	2992.469238	42388.449219
0.000000	2993.787842	42626.003906
0.000000	2995.106445	42671.609375
0.000000	2996.425049	42477.171875
0.000000	2997.743652	42379.390625
0.000000	2999.062256	42205.062500
0.000000	3000.380859	42168.500000
