#DatasetIndex		#Wave		#Intensity
0.000000	699.292969	37760.148438
0.000000	700.611694	37833.078125
0.000000	701.930420	37786.542969
0.000000	703.249146	37949.644531
0.000000	704.567871	38007.273438
0.000000	705.886597	38000.316406
0.000000	707.205322	38198.492188
0.000000	708.524048	38152.714844
0.000000	709.842773	38465.261719
0.000000	711.161499	38325.027344
0.000000	712.480225	38299.894531
0.000000	713.798950	38502.652344
0.000000	715.117676	38747.234375
0.000000	716.436401	38865.687500
0.000000	717.755127	39008.425781
0.000000	719.073853	39086.500000
0.000000	720.392578	39252.429688
0.000000	721.711304	39173.164063
0.000000	723.030029	39261.933594
0.000000	724.348755	39280.945313
0.000000	725.667480	39086.960938
0.000000	726.986206	39242.351563
0.000000	728.304932	39298.035156
0.000000	729.623657	39667.972656
0.000000	730.942383	39607.988281
0.000000	732.261108	39677.914063
0.000000	733.579834	39846.226563
0.000000	734.898560	39898.210938
0.000000	736.217285	39831.000000
0.000000	737.536011	39847.253906
0.000000	738.854736	39688.109375
0.000000	740.173462	39876.902344
0.000000	741.492188	40125.343750
0.000000	742.810913	40032.832031
0.000000	744.129639	39902.503906
0.000000	745.448364	40169.945313
0.000000	746.767090	40234.542969
0.000000	748.085815	39940.378906
0.000000	749.404541	40289.257813
0.000000	750.723267	40532.335938
0.000000	752.041992	40304.121094
0.000000	753.360718	40144.691406
0.000000	754.679443	40373.839844
0.000000	755.998169	40423.464844
0.000000	757.316895	40388.691406
0.000000	758.635620	40294.421875
0.000000	759.954346	40290.289063
0.000000	761.273071	40343.468750
0.000000	762.591797	40581.148438
0.000000	763.910522	40679.539063
0.000000	765.229248	40389.414063
0.000000	766.547974	40703.355469
0.000000	767.866699	40734.066406
0.000000	769.185425	40720.136719
0.000000	770.504150	40764.464844
0.000000	771.822876	40809.035156
0.000000	773.141602	41024.671875
0.000000	774.460327	41218.507813
0.000000	775.779053	40853.621094
0.000000	777.097778	41164.750000
0.000000	778.416504	41090.238281
0.000000	779.735229	41358.671875
0.000000	781.053955	41503.476563
0.000000	782.372681	41474.742188
0.000000	783.691406	41429.808594
0.000000	785.010132	41518.007813
0.000000	786.328857	41739.355469
0.000000	787.647583	41887.781250
0.000000	788.966309	41954.433594
0.000000	790.285034	42016.363281
0.000000	791.603760	42164.671875
0.000000	792.922485	42394.941406
0.000000	794.241211	42469.648438
0.000000	795.559937	42259.933594
0.000000	796.878662	42561.597656
0.000000	798.197388	42324.347656
0.000000	799.516113	42591.078125
0.000000	800.834839	42664.726563
0.000000	802.153564	42586.914063
0.000000	803.472290	42638.476563
0.000000	804.791016	42815.753906
0.000000	806.109741	42797.382813
0.000000	807.428467	43092.414063
0.000000	808.747192	43262.183594
0.000000	810.065918	43287.816406
0.000000	811.384644	43476.406250
0.000000	812.703369	43511.437500
0.000000	814.022095	43531.234375
0.000000	815.340820	43738.480469
0.000000	816.659546	43663.023438
0.000000	817.978271	43535.839844
0.000000	819.296997	43814.933594
0.000000	820.615723	43904.804688
0.000000	821.934448	43979.203125
0.000000	823.253174	44133.199219
0.000000	824.571899	44223.500000
0.000000	825.890625	44153.871094
0.000000	827.209351	44198.765625
0.000000	828.528076	43920.890625
0.000000	829.846802	44211.703125
0.000000	831.165527	44308.300781
0.000000	832.484253	44308.097656
0.000000	833.802979	44399.437500
0.000000	835.121704	44516.000000
0.000000	836.440430	44543.136719
0.000000	837.759155	44712.003906
0.000000	839.077881	44163.742188
0.000000	840.396606	44612.457031
0.000000	841.715332	44741.195313
0.000000	843.034058	44774.257813
0.000000	844.352783	44755.507813
0.000000	845.671509	44708.167969
0.000000	846.990234	44710.945313
0.000000	848.308960	44739.292969
0.000000	849.627686	44950.023438
0.000000	850.946411	45024.750000
0.000000	852.265137	44898.312500
0.000000	853.583862	44951.210938
0.000000	854.902588	45033.457031
0.000000	856.221313	45068.609375
0.000000	857.540039	45134.656250
0.000000	858.858765	45085.335938
0.000000	860.177490	45188.785156
0.000000	861.496216	45376.828125
0.000000	862.814941	45407.699219
0.000000	864.133667	45373.054688
0.000000	865.452393	45253.785156
0.000000	866.771118	45292.539063
0.000000	868.089844	45617.132813
0.000000	869.408569	45780.054688
0.000000	870.727295	46111.859375
0.000000	872.046021	45774.304688
0.000000	873.364746	45872.113281
0.000000	874.683472	46190.101563
0.000000	876.002197	46306.589844
0.000000	877.320923	46319.074219
0.000000	878.639648	46360.000000
0.000000	879.958374	46186.515625
0.000000	881.277100	46464.503906
0.000000	882.595825	46650.773438
0.000000	883.914551	46791.441406
0.000000	885.233276	46807.039063
0.000000	886.552002	46840.457031
0.000000	887.870728	46904.066406
0.000000	889.189453	47147.964844
0.000000	890.508179	47624.605469
0.000000	891.826904	47343.089844
0.000000	893.145630	47493.234375
0.000000	894.464355	47427.296875
0.000000	895.783081	47747.058594
0.000000	897.101807	47938.875000
0.000000	898.420532	48039.957031
0.000000	899.739258	48178.488281
0.000000	901.057983	48249.304688
0.000000	902.376709	48157.566406
0.000000	903.695435	48264.023438
0.000000	905.014160	48459.226563
0.000000	906.332886	48266.941406
0.000000	907.651611	48416.273438
0.000000	908.970337	48560.828125
0.000000	910.289063	48429.460938
0.000000	911.607788	48162.382813
0.000000	912.926514	47997.628906
0.000000	914.245239	47870.726563
0.000000	915.563965	48364.441406
0.000000	916.882690	48521.644531
0.000000	918.201416	48673.644531
0.000000	919.520142	48927.632813
0.000000	920.838867	48789.085938
0.000000	922.157593	48555.835938
0.000000	923.476318	48826.628906
0.000000	924.795044	48900.296875
0.000000	926.113770	49158.476563
0.000000	927.432495	49154.347656
0.000000	928.751221	49185.980469
0.000000	930.069946	48979.316406
0.000000	931.388672	48971.585938
0.000000	932.707397	49102.000000
0.000000	934.026123	49106.996094
0.000000	935.344849	49052.234375
0.000000	936.663574	49103.480469
0.000000	937.982300	49115.863281
0.000000	939.301025	49513.574219
0.000000	940.619751	49566.105469
0.000000	941.938477	49506.285156
0.000000	943.257202	49281.761719
0.000000	944.575928	49145.160156
0.000000	945.894653	49465.585938
0.000000	947.213379	50007.960938
0.000000	948.532104	49699.554688
0.000000	949.850830	50111.714844
0.000000	951.169556	49678.503906
0.000000	952.488281	49616.535156
0.000000	953.807007	49793.183594
0.000000	955.125732	50033.527344
0.000000	956.444458	50132.285156
0.000000	957.763184	50009.847656
0.000000	959.081909	49958.593750
0.000000	960.400635	50310.484375
0.000000	961.719360	50164.796875
0.000000	963.038086	50303.976563
0.000000	964.356812	50085.601563
0.000000	965.675537	50408.660156
0.000000	966.994263	50582.289063
0.000000	968.312988	50427.972656
0.000000	969.631714	50537.242188
0.000000	970.950439	50610.925781
0.000000	972.269165	50458.820313
0.000000	973.587891	51113.285156
0.000000	974.906616	50947.042969
0.000000	976.225342	51049.316406
0.000000	977.544067	51244.984375
0.000000	978.862793	51476.078125
0.000000	980.181519	51568.597656
0.000000	981.500244	51518.933594
0.000000	982.818970	51813.714844
0.000000	984.137695	51855.410156
0.000000	985.456421	51839.757813
0.000000	986.775146	52124.007813
0.000000	988.093872	52176.316406
0.000000	989.412598	52209.632813
0.000000	990.731323	52382.464844
0.000000	992.050049	52445.277344
0.000000	993.368774	52386.824219
0.000000	994.687500	52737.234375
0.000000	996.006226	52917.808594
0.000000	997.324951	52903.777344
0.000000	998.643677	52686.882813
0.000000	999.962402	53049.316406
0.000000	1001.281128	53255.636719
0.000000	1002.599854	53289.058594
0.000000	1003.918579	53315.101563
0.000000	1005.237305	53390.406250
0.000000	1006.556030	53512.531250
0.000000	1007.874756	53578.031250
0.000000	1009.193481	53691.062500
0.000000	1010.512207	53640.472656
0.000000	1011.830933	53764.050781
0.000000	1013.149658	53591.605469
0.000000	1014.468384	53772.605469
0.000000	1015.787109	53968.785156
0.000000	1017.105835	53812.710938
0.000000	1018.424561	53746.925781
0.000000	1019.743286	54043.125000
0.000000	1021.062012	54050.988281
0.000000	1022.380737	54140.148438
0.000000	1023.699463	54410.390625
0.000000	1025.018188	54115.972656
0.000000	1026.336914	54125.972656
0.000000	1027.655640	54149.269531
0.000000	1028.974365	54178.652344
0.000000	1030.293091	54448.343750
0.000000	1031.611816	54579.398438
0.000000	1032.930542	54597.667969
0.000000	1034.249268	54237.007813
0.000000	1035.567993	54523.117188
0.000000	1036.886719	54424.292969
0.000000	1038.205444	54704.878906
0.000000	1039.524170	54775.242188
0.000000	1040.842896	54702.171875
0.000000	1042.161621	54746.140625
0.000000	1043.480347	54799.722656
0.000000	1044.799072	54861.613281
0.000000	1046.117798	54919.546875
0.000000	1047.436523	54342.015625
0.000000	1048.755249	54776.117188
0.000000	1050.073975	55028.167969
0.000000	1051.392700	54976.535156
0.000000	1052.711426	55151.222656
0.000000	1054.030151	55282.085938
0.000000	1055.348877	55261.402344
0.000000	1056.667603	55479.351563
0.000000	1057.986328	55285.250000
0.000000	1059.305054	55032.300781
0.000000	1060.623779	55347.640625
0.000000	1061.942505	55346.320313
0.000000	1063.261230	55455.363281
0.000000	1064.579956	55351.613281
0.000000	1065.898682	55510.585938
0.000000	1067.217407	55646.894531
0.000000	1068.536133	55545.656250
0.000000	1069.854858	55753.519531
0.000000	1071.173584	55855.675781
0.000000	1072.492310	56026.078125
0.000000	1073.811035	56204.218750
0.000000	1075.129761	56089.699219
0.000000	1076.448486	56474.406250
0.000000	1077.767212	56554.460938
0.000000	1079.085938	56519.222656
0.000000	1080.404663	56562.550781
0.000000	1081.723389	56515.535156
0.000000	1083.042114	56484.242188
0.000000	1084.360840	56952.449219
0.000000	1085.679565	56893.367188
0.000000	1086.998291	57059.832031
0.000000	1088.317017	57191.605469
0.000000	1089.635742	57387.023438
0.000000	1090.954468	57336.199219
0.000000	1092.273193	57410.308594
0.000000	1093.591919	57462.589844
0.000000	1094.910645	57458.492188
0.000000	1096.229370	57729.871094
0.000000	1097.548096	57853.460938
0.000000	1098.866821	57786.812500
0.000000	1100.185547	57592.250000
0.000000	1101.504272	58025.960938
0.000000	1102.822998	58080.871094
0.000000	1104.141724	58231.050781
0.000000	1105.460449	58184.347656
0.000000	1106.779175	58101.574219
0.000000	1108.097900	58254.742188
0.000000	1109.416626	58488.230469
0.000000	1110.735352	58502.074219
0.000000	1112.054077	58326.195313
0.000000	1113.372803	58357.472656
0.000000	1114.691528	58453.730469
0.000000	1116.010254	58727.097656
0.000000	1117.328979	58895.492188
0.000000	1118.647705	58772.531250
0.000000	1119.966431	58677.039063
0.000000	1121.285156	58878.792969
0.000000	1122.603882	58949.398438
0.000000	1123.922607	58681.031250
0.000000	1125.241333	59203.312500
0.000000	1126.560059	58641.519531
0.000000	1127.878784	58925.167969
0.000000	1129.197510	58774.308594
0.000000	1130.516235	59017.062500
0.000000	1131.834961	58900.398438
0.000000	1133.153687	58916.347656
0.000000	1134.472412	58968.261719
0.000000	1135.791138	59096.765625
0.000000	1137.109863	59321.457031
0.000000	1138.428589	59157.394531
0.000000	1139.747314	59229.500000
0.000000	1141.066040	59349.949219
0.000000	1142.384766	59267.519531
0.000000	1143.703491	59369.281250
0.000000	1145.022217	59309.906250
0.000000	1146.340942	59486.824219
0.000000	1147.659668	59524.503906
0.000000	1148.978394	59468.988281
0.000000	1150.297119	59498.218750
0.000000	1151.615845	59612.449219
0.000000	1152.934570	59819.277344
0.000000	1154.253296	59751.609375
0.000000	1155.572021	59678.152344
0.000000	1156.890747	59501.238281
0.000000	1158.209473	59488.687500
0.000000	1159.528198	59732.324219
0.000000	1160.846924	60215.687500
0.000000	1162.165649	60154.410156
0.000000	1163.484375	59884.445313
0.000000	1164.803101	59860.941406
0.000000	1166.121826	59894.707031
0.000000	1167.440552	59966.484375
0.000000	1168.759277	60349.011719
0.000000	1170.078003	60377.433594
0.000000	1171.396729	60200.050781
0.000000	1172.715454	60236.808594
0.000000	1174.034180	60767.984375
0.000000	1175.352905	60937.714844
0.000000	1176.671631	60974.582031
0.000000	1177.990356	60900.765625
0.000000	1179.309082	60947.539063
0.000000	1180.627808	61061.933594
0.000000	1181.946533	60885.003906
0.000000	1183.265259	61258.656250
0.000000	1184.583984	61459.496094
0.000000	1185.902710	61449.058594
0.000000	1187.221436	61449.203125
0.000000	1188.540161	61667.515625
0.000000	1189.858887	61904.316406
0.000000	1191.177612	61959.757813
0.000000	1192.496338	62212.789063
0.000000	1193.815063	62317.210938
0.000000	1195.133789	62205.554688
0.000000	1196.452515	62249.558594
0.000000	1197.771240	62120.375000
0.000000	1199.089966	62411.042969
0.000000	1200.408691	62684.296875
0.000000	1201.727417	62805.500000
0.000000	1203.046143	62862.824219
0.000000	1204.364868	62940.613281
0.000000	1205.683594	63246.195313
0.000000	1207.002319	63019.230469
0.000000	1208.321045	62991.562500
0.000000	1209.639771	63162.363281
0.000000	1210.958496	63297.125000
0.000000	1212.277222	63648.214844
0.000000	1213.595947	63402.660156
0.000000	1214.914673	63528.589844
0.000000	1216.233398	63349.687500
0.000000	1217.552124	63893.718750
0.000000	1218.870850	63966.988281
0.000000	1220.189575	63704.972656
0.000000	1221.508301	63676.125000
0.000000	1222.827026	63569.820313
0.000000	1224.145752	63429.312500
0.000000	1225.464478	63460.316406
0.000000	1226.783203	63791.582031
0.000000	1228.101929	64181.574219
0.000000	1229.420654	63967.363281
0.000000	1230.739380	63908.476563
0.000000	1232.058105	63615.144531
0.000000	1233.376831	64495.589844
0.000000	1234.695557	64485.031250
0.000000	1236.014282	64445.906250
0.000000	1237.333008	63864.492188
0.000000	1238.651733	64034.656250
0.000000	1239.970459	64334.289063
0.000000	1241.289185	64398.886719
0.000000	1242.607910	64473.128906
0.000000	1243.926636	64457.886719
0.000000	1245.245361	64557.246094
0.000000	1246.564087	64858.625000
0.000000	1247.882813	64250.003906
0.000000	1249.201538	64427.488281
0.000000	1250.520264	64615.691406
0.000000	1251.838989	64711.820313
0.000000	1253.157715	64613.843750
0.000000	1254.476440	64787.367188
0.000000	1255.795166	64803.957031
0.000000	1257.113892	64615.019531
0.000000	1258.432617	64599.941406
0.000000	1259.751343	64801.855469
0.000000	1261.070068	64913.695313
0.000000	1262.388794	64916.363281
0.000000	1263.707520	65061.921875
0.000000	1265.026245	64676.691406
0.000000	1266.344971	65161.429688
0.000000	1267.663696	65271.890625
0.000000	1268.982422	65557.046875
0.000000	1270.301147	65175.417969
0.000000	1271.619873	65311.281250
0.000000	1272.938599	65665.468750
0.000000	1274.257324	65744.171875
0.000000	1275.576050	65688.328125
0.000000	1276.894775	65659.789063
0.000000	1278.213501	65721.632813
0.000000	1279.532227	66115.421875
0.000000	1280.850952	66281.742188
0.000000	1282.169678	65825.046875
0.000000	1283.488403	66061.171875
0.000000	1284.807129	66298.578125
0.000000	1286.125854	66298.023438
0.000000	1287.444580	66548.578125
0.000000	1288.763306	66469.968750
0.000000	1290.082031	66508.726563
0.000000	1291.400757	66940.640625
0.000000	1292.719482	67148.179688
0.000000	1294.038208	66955.515625
0.000000	1295.356934	67011.273438
0.000000	1296.675659	67189.296875
0.000000	1297.994385	67365.460938
0.000000	1299.313110	67447.289063
0.000000	1300.631836	67952.765625
0.000000	1301.950562	67713.968750
0.000000	1303.269287	68071.304688
0.000000	1304.588013	67736.898438
0.000000	1305.906738	67861.281250
0.000000	1307.225464	68166.812500
0.000000	1308.544189	68172.976563
0.000000	1309.862915	68258.460938
0.000000	1311.181641	68265.742188
0.000000	1312.500366	68086.460938
0.000000	1313.819092	68553.882813
0.000000	1315.137817	68404.343750
0.000000	1316.456543	68301.703125
0.000000	1317.775269	68757.023438
0.000000	1319.093994	68573.976563
0.000000	1320.412720	68699.781250
0.000000	1321.731445	68644.820313
0.000000	1323.050171	68933.250000
0.000000	1324.368896	68971.281250
0.000000	1325.687622	68964.265625
0.000000	1327.006348	68999.000000
0.000000	1328.325073	68999.867188
0.000000	1329.643799	69047.812500
0.000000	1330.962524	69008.546875
0.000000	1332.281250	68800.757813
0.000000	1333.599976	69194.335938
0.000000	1334.918701	69162.671875
0.000000	1336.237427	69386.015625
0.000000	1337.556152	68992.406250
0.000000	1338.874878	68985.257813
0.000000	1340.193604	69383.695313
0.000000	1341.512329	69514.468750
0.000000	1342.831055	69486.039063
0.000000	1344.149780	69467.851563
0.000000	1345.468506	69445.796875
0.000000	1346.787231	69402.273438
0.000000	1348.105957	69243.148438
0.000000	1349.424683	69166.156250
0.000000	1350.743408	69370.375000
0.000000	1352.062134	69356.601563
0.000000	1353.380859	69882.921875
0.000000	1354.699585	69314.429688
0.000000	1356.018311	69497.445313
0.000000	1357.337036	69885.703125
0.000000	1358.655762	69943.062500
0.000000	1359.974487	69748.203125
0.000000	1361.293213	69482.984375
0.000000	1362.611938	69630.898438
0.000000	1363.930664	70019.726563
0.000000	1365.249390	70189.500000
0.000000	1366.568115	69950.156250
0.000000	1367.886841	69713.875000
0.000000	1369.205566	69796.875000
0.000000	1370.524292	69875.234375
0.000000	1371.843018	69906.398438
0.000000	1373.161743	69960.781250
0.000000	1374.480469	70170.585938
0.000000	1375.799194	70349.695313
0.000000	1377.117920	69925.570313
0.000000	1378.436646	70071.460938
0.000000	1379.755371	70459.710938
0.000000	1381.074097	70367.039063
0.000000	1382.392822	70602.015625
0.000000	1383.711548	70531.351563
0.000000	1385.030273	70615.101563
0.000000	1386.348999	70717.507813
0.000000	1387.667725	70805.710938
0.000000	1388.986450	70915.765625
0.000000	1390.305176	70710.375000
0.000000	1391.623901	70863.187500
0.000000	1392.942627	70879.132813
0.000000	1394.261353	71071.468750
0.000000	1395.580078	71441.328125
0.000000	1396.898804	71523.148438
0.000000	1398.217529	71248.781250
0.000000	1399.536255	71427.320313
0.000000	1400.854980	71753.656250
0.000000	1402.173706	72014.132813
0.000000	1403.492432	71808.750000
0.000000	1404.811157	71758.265625
0.000000	1406.129883	71874.117188
0.000000	1407.448608	72203.132813
0.000000	1408.767334	72491.515625
0.000000	1410.086060	72393.757813
0.000000	1411.404785	72298.710938
0.000000	1412.723511	72422.421875
0.000000	1414.042236	72558.304688
0.000000	1415.360962	72709.648438
0.000000	1416.679688	72707.078125
0.000000	1417.998413	72737.640625
0.000000	1419.317139	72515.531250
0.000000	1420.635864	73267.359375
0.000000	1421.954590	73308.140625
0.000000	1423.273315	73447.023438
0.000000	1424.592041	73171.882813
0.000000	1425.910767	72956.875000
0.000000	1427.229492	73267.531250
0.000000	1428.548218	73736.101563
0.000000	1429.866943	73641.187500
0.000000	1431.185669	73236.164063
0.000000	1432.504395	73243.460938
0.000000	1433.823120	73497.015625
0.000000	1435.141846	73651.953125
0.000000	1436.460571	73665.515625
0.000000	1437.779297	73642.125000
0.000000	1439.098022	73587.625000
0.000000	1440.416748	73483.710938
0.000000	1441.735474	73644.703125
0.000000	1443.054199	73718.851563
0.000000	1444.372925	74105.148438
0.000000	1445.691650	74268.546875
0.000000	1447.010376	73895.351563
0.000000	1448.329102	73831.445313
0.000000	1449.647827	74002.664063
0.000000	1450.966553	73899.171875
0.000000	1452.285278	73855.882813
0.000000	1453.604004	73937.523438
0.000000	1454.922729	73983.882813
0.000000	1456.241455	74012.984375
0.000000	1457.560181	73727.867188
0.000000	1458.878906	73794.351563
0.000000	1460.197632	74084.398438
0.000000	1461.516357	74107.632813
0.000000	1462.835083	74450.171875
0.000000	1464.153809	73927.117188
0.000000	1465.472534	74018.359375
0.000000	1466.791260	74513.125000
0.000000	1468.109985	74231.203125
0.000000	1469.428711	74206.304688
0.000000	1470.747437	73913.421875
0.000000	1472.066162	74205.500000
0.000000	1473.384888	74586.414063
0.000000	1474.703613	74548.843750
0.000000	1476.022339	74334.101563
0.000000	1477.341064	74287.890625
0.000000	1478.659790	74491.687500
0.000000	1479.978516	74505.742188
0.000000	1481.297241	74198.351563
0.000000	1482.615967	74472.835938
0.000000	1483.934692	74784.804688
0.000000	1485.253418	74833.031250
0.000000	1486.572144	74682.171875
0.000000	1487.890869	74767.648438
0.000000	1489.209595	74655.765625
0.000000	1490.528320	74970.320313
0.000000	1491.847046	75312.320313
0.000000	1493.165771	75054.781250
0.000000	1494.484497	75154.789063
0.000000	1495.803223	75218.953125
0.000000	1497.121948	75083.898438
0.000000	1498.440674	75201.734375
0.000000	1499.759399	75490.750000
0.000000	1501.078125	75688.695313
0.000000	1502.396851	75591.117188
0.000000	1503.715576	75622.203125
0.000000	1505.034302	75938.398438
0.000000	1506.353027	76045.054688
0.000000	1507.671753	75955.609375
0.000000	1508.990479	75637.625000
0.000000	1510.309204	76116.640625
0.000000	1511.627930	76041.656250
0.000000	1512.946655	76407.226563
0.000000	1514.265381	76277.054688
0.000000	1515.584106	76470.046875
0.000000	1516.902832	76575.562500
0.000000	1518.221558	76650.710938
0.000000	1519.540283	76496.453125
0.000000	1520.859009	76554.593750
0.000000	1522.177734	77038.750000
0.000000	1523.496460	77432.875000
0.000000	1524.815186	77618.242188
0.000000	1526.133911	77388.054688
0.000000	1527.452637	77154.296875
0.000000	1528.771362	77369.203125
0.000000	1530.090088	77594.554688
0.000000	1531.408813	77750.359375
0.000000	1532.727539	77988.257813
0.000000	1534.046265	77920.554688
0.000000	1535.364990	77896.421875
0.000000	1536.683716	78037.421875
0.000000	1538.002441	78120.796875
0.000000	1539.321167	78368.679688
0.000000	1540.639893	78166.304688
0.000000	1541.958618	78243.812500
0.000000	1543.277344	78265.554688
0.000000	1544.596069	78264.937500
0.000000	1545.914795	78460.023438
0.000000	1547.233521	78684.367188
0.000000	1548.552246	78612.335938
0.000000	1549.870972	78600.398438
0.000000	1551.189697	78692.375000
0.000000	1552.508423	78506.820313
0.000000	1553.827148	78852.328125
0.000000	1555.145874	79025.804688
0.000000	1556.464600	79285.937500
0.000000	1557.783325	79176.257813
0.000000	1559.102051	79019.195313
0.000000	1560.420776	79048.687500
0.000000	1561.739502	78970.039063
0.000000	1563.058228	79198.835938
0.000000	1564.376953	79299.882813
0.000000	1565.695679	79139.406250
0.000000	1567.014404	78819.867188
0.000000	1568.333130	78860.828125
0.000000	1569.651855	79147.640625
0.000000	1570.970581	79013.968750
0.000000	1572.289307	79264.695313
0.000000	1573.608032	79214.085938
0.000000	1574.926758	78768.984375
0.000000	1576.245483	79479.843750
0.000000	1577.564209	79681.695313
0.000000	1578.882935	79735.015625
0.000000	1580.201660	79358.171875
0.000000	1581.520386	79266.281250
0.000000	1582.839111	79464.570313
0.000000	1584.157837	79537.382813
0.000000	1585.476563	79637.671875
0.000000	1586.795288	79481.914063
0.000000	1588.114014	79697.578125
0.000000	1589.432739	79963.750000
0.000000	1590.751465	79936.921875
0.000000	1592.070190	79603.281250
0.000000	1593.388916	79632.875000
0.000000	1594.707642	80044.226563
0.000000	1596.026367	79784.390625
0.000000	1597.345093	79898.984375
0.000000	1598.663818	80220.226563
0.000000	1599.982544	79992.390625
0.000000	1601.301270	80291.914063
0.000000	1602.619995	80618.460938
0.000000	1603.938721	80337.539063
0.000000	1605.257446	80404.953125
0.000000	1606.576172	80731.914063
0.000000	1607.894897	80417.281250
0.000000	1609.213623	80784.437500
0.000000	1610.532349	80965.492188
0.000000	1611.851074	80978.382813
0.000000	1613.169800	81037.296875
0.000000	1614.488525	81390.773438
0.000000	1615.807251	81147.453125
0.000000	1617.125977	81313.593750
0.000000	1618.444702	80850.695313
0.000000	1619.763428	81400.875000
0.000000	1621.082153	82152.578125
0.000000	1622.400879	82142.859375
0.000000	1623.719604	81823.445313
0.000000	1625.038330	81794.812500
0.000000	1626.357056	81799.218750
0.000000	1627.675781	81739.242188
0.000000	1628.994507	81964.210938
0.000000	1630.313232	82367.445313
0.000000	1631.631958	82407.203125
0.000000	1632.950684	82092.476563
0.000000	1634.269409	82042.710938
0.000000	1635.588135	82007.429688
0.000000	1636.906860	82307.335938
0.000000	1638.225586	82434.476563
0.000000	1639.544312	82525.664063
0.000000	1640.863037	82510.304688
0.000000	1642.181763	83295.968750
0.000000	1643.500488	83131.664063
0.000000	1644.819214	83214.882813
0.000000	1646.137939	83399.421875
0.000000	1647.456665	82873.906250
0.000000	1648.775391	83312.312500
0.000000	1650.094116	83346.437500
0.000000	1651.412842	83658.445313
0.000000	1652.731567	83903.273438
0.000000	1654.050293	83744.195313
0.000000	1655.369019	83491.820313
0.000000	1656.687744	83679.492188
0.000000	1658.006470	83694.000000
0.000000	1659.325195	83805.781250
0.000000	1660.643921	83566.007813
0.000000	1661.962646	83793.726563
0.000000	1663.281372	84387.187500
0.000000	1664.600098	84202.843750
0.000000	1665.918823	83670.226563
0.000000	1667.237549	83769.937500
0.000000	1668.556274	84286.859375
0.000000	1669.875000	84598.539063
0.000000	1671.193726	84462.000000
0.000000	1672.512451	84238.789063
0.000000	1673.831177	84350.562500
0.000000	1675.149902	84341.453125
0.000000	1676.468628	84071.617188
0.000000	1677.787354	83976.726563
0.000000	1679.106079	84028.335938
0.000000	1680.424805	84371.484375
0.000000	1681.743530	84060.085938
0.000000	1683.062256	84430.492188
0.000000	1684.380981	84656.445313
0.000000	1685.699707	84516.218750
0.000000	1687.018433	84407.398438
0.000000	1688.337158	84372.554688
0.000000	1689.655884	84482.320313
0.000000	1690.974609	84730.140625
0.000000	1692.293335	84658.671875
0.000000	1693.612061	84305.734375
0.000000	1694.930786	84355.460938
0.000000	1696.249512	84272.320313
0.000000	1697.568237	84855.617188
0.000000	1698.886963	84685.218750
0.000000	1700.205688	84807.585938
0.000000	1701.524414	84939.578125
0.000000	1702.843140	84694.703125
0.000000	1704.161865	84592.515625
0.000000	1705.480591	84521.773438
0.000000	1706.799316	84647.890625
0.000000	1708.118042	84671.734375
0.000000	1709.436768	85109.031250
0.000000	1710.755493	84980.828125
0.000000	1712.074219	84657.273438
0.000000	1713.392944	84725.039063
0.000000	1714.711670	84823.867188
0.000000	1716.030396	84859.515625
0.000000	1717.349121	85182.164063
0.000000	1718.667847	85295.531250
0.000000	1719.986572	85168.507813
0.000000	1721.305298	85395.671875
0.000000	1722.624023	85492.109375
0.000000	1723.942749	85485.679688
0.000000	1725.261475	85491.210938
0.000000	1726.580200	85370.882813
0.000000	1727.898926	85796.500000
0.000000	1729.217651	85728.812500
0.000000	1730.536377	85625.226563
0.000000	1731.855103	85587.398438
0.000000	1733.173828	86152.156250
0.000000	1734.492554	86064.718750
0.000000	1735.811279	85866.023438
0.000000	1737.130005	85867.640625
0.000000	1738.448730	86386.289063
0.000000	1739.767456	86043.656250
0.000000	1741.086182	85864.031250
0.000000	1742.404907	86483.757813
0.000000	1743.723633	86540.000000
0.000000	1745.042358	86161.242188
0.000000	1746.361084	86800.234375
0.000000	1747.679810	86505.687500
0.000000	1748.998535	86788.781250
0.000000	1750.317261	86767.296875
0.000000	1751.635986	87054.789063
0.000000	1752.954712	87347.414063
0.000000	1754.273438	87146.367188
0.000000	1755.592163	87157.156250
0.000000	1756.910889	86968.843750
0.000000	1758.229614	87279.406250
0.000000	1759.548340	87731.445313
0.000000	1760.867065	87631.812500
0.000000	1762.185791	87893.546875
0.000000	1763.504517	87793.812500
0.000000	1764.823242	87663.187500
0.000000	1766.141968	88136.085938
0.000000	1767.460693	87779.656250
0.000000	1768.779419	87863.820313
0.000000	1770.098145	88043.429688
0.000000	1771.416870	87906.179688
0.000000	1772.735596	88118.437500
0.000000	1774.054321	88101.546875
0.000000	1775.373047	88229.648438
0.000000	1776.691772	88305.476563
0.000000	1778.010498	88300.640625
0.000000	1779.329224	88262.523438
0.000000	1780.647949	88524.562500
0.000000	1781.966675	88499.500000
0.000000	1783.285400	88345.781250
0.000000	1784.604126	88729.632813
0.000000	1785.922852	88879.867188
0.000000	1787.241577	88586.929688
0.000000	1788.560303	88440.468750
0.000000	1789.879028	88350.906250
0.000000	1791.197754	88537.195313
0.000000	1792.516479	88920.398438
0.000000	1793.835205	89007.828125
0.000000	1795.153931	88784.007813
0.000000	1796.472656	88609.476563
0.000000	1797.791382	88806.671875
0.000000	1799.110107	88739.218750
0.000000	1800.428833	88736.132813
0.000000	1801.747559	88885.625000
0.000000	1803.066284	88766.070313
0.000000	1804.385010	88569.250000
0.000000	1805.703735	88549.406250
0.000000	1807.022461	88414.914063
0.000000	1808.341187	88389.812500
0.000000	1809.659912	88303.171875
0.000000	1810.978638	88671.351563
0.000000	1812.297363	88935.570313
0.000000	1813.616089	89030.312500
0.000000	1814.934814	88460.953125
0.000000	1816.253540	88585.609375
0.000000	1817.572266	88980.007813
0.000000	1818.890991	88929.781250
0.000000	1820.209717	88561.250000
0.000000	1821.528442	88707.796875
0.000000	1822.847168	88646.531250
0.000000	1824.165894	88685.734375
0.000000	1825.484619	88438.164063
0.000000	1826.803345	88765.789063
0.000000	1828.122070	88719.695313
0.000000	1829.440796	89448.335938
0.000000	1830.759521	89092.156250
0.000000	1832.078247	89184.921875
0.000000	1833.396973	89273.781250
0.000000	1834.715698	88874.468750
0.000000	1836.034424	89376.640625
0.000000	1837.353149	89307.242188
0.000000	1838.671875	89481.265625
0.000000	1839.990601	89371.421875
0.000000	1841.309326	90083.187500
0.000000	1842.628052	89830.437500
0.000000	1843.946777	90201.609375
0.000000	1845.265503	89687.812500
0.000000	1846.584229	89814.359375
0.000000	1847.902954	90723.640625
0.000000	1849.221680	89965.234375
0.000000	1850.540405	90081.085938
0.000000	1851.859131	90160.351563
0.000000	1853.177856	90643.656250
0.000000	1854.496582	90557.546875
0.000000	1855.815308	90222.632813
0.000000	1857.134033	90787.429688
0.000000	1858.452759	91069.750000
0.000000	1859.771484	91127.953125
0.000000	1861.090210	91098.335938
0.000000	1862.408936	91335.203125
0.000000	1863.727661	90653.281250
0.000000	1865.046387	91210.757813
0.000000	1866.365112	91067.789063
0.000000	1867.683838	91514.976563
0.000000	1869.002563	91572.507813
0.000000	1870.321289	91985.804688
0.000000	1871.640015	91744.335938
0.000000	1872.958740	92011.242188
0.000000	1874.277466	92624.320313
0.000000	1875.596191	91855.195313
0.000000	1876.914917	92426.562500
0.000000	1878.233643	92425.031250
0.000000	1879.552368	92338.156250
0.000000	1880.871094	92437.757813
0.000000	1882.189819	92349.085938
0.000000	1883.508545	92717.281250
0.000000	1884.827271	92978.234375
0.000000	1886.145996	92906.585938
0.000000	1887.464722	92755.203125
0.000000	1888.783447	92741.640625
0.000000	1890.102173	92756.343750
0.000000	1891.420898	92994.273438
0.000000	1892.739624	93461.007813
0.000000	1894.058350	93035.781250
0.000000	1895.377075	92699.960938
0.000000	1896.695801	93245.273438
0.000000	1898.014526	92970.539063
0.000000	1899.333252	93638.039063
0.000000	1900.651978	92978.734375
0.000000	1901.970703	93629.382813
0.000000	1903.289429	93436.328125
0.000000	1904.608154	93610.000000
0.000000	1905.926880	93357.203125
0.000000	1907.245605	93347.765625
0.000000	1908.564331	93477.656250
0.000000	1909.883057	93237.390625
0.000000	1911.201782	93139.984375
0.000000	1912.520508	93848.875000
0.000000	1913.839233	94088.835938
0.000000	1915.157959	93647.382813
0.000000	1916.476685	93802.539063
0.000000	1917.795410	93617.914063
0.000000	1919.114136	93644.601563
0.000000	1920.432861	93820.226563
0.000000	1921.751587	94270.640625
0.000000	1923.070313	93542.625000
0.000000	1924.389038	93705.796875
0.000000	1925.707764	94186.054688
0.000000	1927.026489	93898.570313
0.000000	1928.345215	93765.476563
0.000000	1929.663940	94044.031250
0.000000	1930.982666	93872.968750
0.000000	1932.301392	93904.281250
0.000000	1933.620117	94594.562500
0.000000	1934.938843	93903.351563
0.000000	1936.257568	94344.585938
0.000000	1937.576294	94256.414063
0.000000	1938.895020	93796.375000
0.000000	1940.213745	93959.148438
0.000000	1941.532471	94191.640625
0.000000	1942.851196	94370.828125
0.000000	1944.169922	94352.843750
0.000000	1945.488647	94346.328125
0.000000	1946.807373	94558.937500
0.000000	1948.126099	94614.679688
0.000000	1949.444824	94221.414063
0.000000	1950.763550	94779.851563
0.000000	1952.082275	94738.843750
0.000000	1953.401001	94799.390625
0.000000	1954.719727	95351.742188
0.000000	1956.038452	95107.320313
0.000000	1957.357178	95391.867188
0.000000	1958.675903	95530.171875
0.000000	1959.994629	94878.570313
0.000000	1961.313354	95453.070313
0.000000	1962.632080	95299.054688
0.000000	1963.950806	95894.140625
0.000000	1965.269531	95846.906250
0.000000	1966.588257	95791.468750
0.000000	1967.906982	96256.757813
0.000000	1969.225708	96077.023438
0.000000	1970.544434	96320.984375
0.000000	1971.863159	95791.000000
0.000000	1973.181885	96403.601563
0.000000	1974.500610	95939.015625
0.000000	1975.819336	96176.320313
0.000000	1977.138062	96607.500000
0.000000	1978.456787	96433.273438
0.000000	1979.775513	96274.851563
0.000000	1981.094238	96403.984375
0.000000	1982.412964	96628.671875
0.000000	1983.731689	96294.843750
0.000000	1985.050415	96504.031250
0.000000	1986.369141	96779.453125
0.000000	1987.687866	96969.898438
0.000000	1989.006592	96906.289063
0.000000	1990.325317	96998.851563
0.000000	1991.644043	97400.289063
0.000000	1992.962769	97355.750000
0.000000	1994.281494	96844.695313
0.000000	1995.600220	96894.257813
0.000000	1996.918945	97329.960938
0.000000	1998.237671	97577.742188
0.000000	1999.556396	97600.421875
0.000000	2000.875122	97802.382813
0.000000	2002.193848	97974.445313
0.000000	2003.512573	97405.062500
0.000000	2004.831299	97748.078125
0.000000	2006.150024	98367.289063
0.000000	2007.468750	97964.796875
0.000000	2008.787476	97583.835938
0.000000	2010.106201	97828.843750
0.000000	2011.424927	98035.226563
0.000000	2012.743652	98603.703125
0.000000	2014.062378	98465.671875
0.000000	2015.381104	98132.835938
0.000000	2016.699829	98203.109375
0.000000	2018.018555	98597.648438
0.000000	2019.337280	98359.164063
0.000000	2020.656006	98189.828125
0.000000	2021.974731	98622.328125
0.000000	2023.293457	98444.820313
0.000000	2024.612183	98688.640625
0.000000	2025.930908	98636.984375
0.000000	2027.249634	98505.335938
0.000000	2028.568359	98445.804688
0.000000	2029.887085	98357.398438
0.000000	2031.205811	98883.625000
0.000000	2032.524536	98721.109375
0.000000	2033.843262	98428.218750
0.000000	2035.161987	98920.164063
0.000000	2036.480713	98543.367188
0.000000	2037.799438	98088.710938
0.000000	2039.118164	98664.226563
0.000000	2040.436890	98778.507813
0.000000	2041.755615	98719.320313
0.000000	2043.074341	99225.500000
0.000000	2044.393066	98251.656250
0.000000	2045.711792	99112.851563
0.000000	2047.030518	98558.085938
0.000000	2048.349121	99005.679688
0.000000	2049.667725	98779.734375
0.000000	2050.986328	98934.390625
0.000000	2052.304932	98989.921875
0.000000	2053.623535	99118.914063
0.000000	2054.942139	99033.039063
0.000000	2056.260742	98874.476563
0.000000	2057.579346	98973.335938
0.000000	2058.897949	98631.570313
0.000000	2060.216553	98588.382813
0.000000	2061.535156	98773.187500
0.000000	2062.853760	98744.921875
0.000000	2064.172363	98668.578125
0.000000	2065.490967	98989.585938
0.000000	2066.809570	98746.140625
0.000000	2068.128174	98649.867188
0.000000	2069.446777	98985.085938
0.000000	2070.765381	99308.000000
0.000000	2072.083984	99156.773438
0.000000	2073.402588	99081.007813
0.000000	2074.721191	99060.625000
0.000000	2076.039795	99461.875000
0.000000	2077.358398	99406.085938
0.000000	2078.677002	99089.289063
0.000000	2079.995605	99310.101563
0.000000	2081.314209	99315.929688
0.000000	2082.632813	99751.203125
0.000000	2083.951416	99722.953125
0.000000	2085.270020	99183.382813
0.000000	2086.588623	99583.531250
0.000000	2087.907227	99715.843750
0.000000	2089.225830	99704.710938
0.000000	2090.544434	99540.000000
0.000000	2091.863037	99643.179688
0.000000	2093.181641	100222.804688
0.000000	2094.500244	99909.078125
0.000000	2095.818848	100024.632813
0.000000	2097.137451	100263.546875
0.000000	2098.456055	100427.421875
0.000000	2099.774658	100273.664063
0.000000	2101.093262	100469.492188
0.000000	2102.411865	100398.703125
0.000000	2103.730469	100168.812500
0.000000	2105.049072	100427.585938
0.000000	2106.367676	100696.695313
0.000000	2107.686279	100747.125000
0.000000	2109.004883	100654.718750
0.000000	2110.323486	100891.187500
0.000000	2111.642090	100846.968750
0.000000	2112.960693	101103.726563
0.000000	2114.279297	101231.984375
0.000000	2115.597900	100948.718750
0.000000	2116.916504	101148.898438
0.000000	2118.235107	101119.968750
0.000000	2119.553711	101129.054688
0.000000	2120.872314	101422.601563
0.000000	2122.190918	101501.500000
0.000000	2123.509521	101073.828125
0.000000	2124.828125	101167.476563
0.000000	2126.146729	101501.070313
0.000000	2127.465332	101280.773438
0.000000	2128.783936	101353.687500
0.000000	2130.102539	101572.687500
0.000000	2131.421143	101480.234375
0.000000	2132.739746	101755.585938
0.000000	2134.058350	101755.781250
0.000000	2135.376953	101781.921875
0.000000	2136.695557	102217.273438
0.000000	2138.014160	101713.195313
0.000000	2139.332764	101288.187500
0.000000	2140.651367	101808.710938
0.000000	2141.969971	102097.320313
0.000000	2143.288574	101897.312500
0.000000	2144.607178	101976.796875
0.000000	2145.925781	101673.914063
0.000000	2147.244385	102133.546875
0.000000	2148.562988	101863.328125
0.000000	2149.881592	101656.320313
0.000000	2151.200195	102360.304688
0.000000	2152.518799	102250.562500
0.000000	2153.837402	101760.812500
0.000000	2155.156006	101699.531250
0.000000	2156.474609	102079.914063
0.000000	2157.793213	101806.156250
0.000000	2159.111816	101679.257813
0.000000	2160.430420	101841.476563
0.000000	2161.749023	101929.320313
0.000000	2163.067627	101637.664063
0.000000	2164.386230	102117.523438
0.000000	2165.704834	102437.062500
0.000000	2167.023438	102135.757813
0.000000	2168.342041	102334.414063
0.000000	2169.660645	101909.726563
0.000000	2170.979248	102250.882813
0.000000	2172.297852	101918.171875
0.000000	2173.616455	102162.273438
0.000000	2174.935059	102007.320313
0.000000	2176.253662	102265.234375
0.000000	2177.572266	101600.273438
0.000000	2178.890869	102110.328125
0.000000	2180.209473	102733.460938
0.000000	2181.528076	102256.203125
0.000000	2182.846680	102121.953125
0.000000	2184.165283	102078.406250
0.000000	2185.483887	102652.242188
0.000000	2186.802490	102598.117188
0.000000	2188.121094	102417.460938
0.000000	2189.439697	102689.000000
0.000000	2190.758301	102440.085938
0.000000	2192.076904	102299.054688
0.000000	2193.395508	102007.406250
0.000000	2194.714111	102394.796875
0.000000	2196.032715	102395.835938
0.000000	2197.351318	102742.093750
0.000000	2198.669922	102616.734375
0.000000	2199.988525	102762.859375
0.000000	2201.307129	102770.562500
0.000000	2202.625732	102947.890625
0.000000	2203.944336	102805.523438
0.000000	2205.262939	103007.289063
0.000000	2206.581543	102936.085938
0.000000	2207.900146	102424.765625
0.000000	2209.218750	102498.554688
0.000000	2210.537354	102779.960938
0.000000	2211.855957	102727.835938
0.000000	2213.174561	102847.054688
0.000000	2214.493164	102806.171875
0.000000	2215.811768	103210.609375
0.000000	2217.130371	103117.140625
0.000000	2218.448975	102864.570313
0.000000	2219.767578	103108.539063
0.000000	2221.086182	103144.812500
0.000000	2222.404785	103015.203125
0.000000	2223.723389	103093.195313
0.000000	2225.041992	103116.882813
0.000000	2226.360596	103132.257813
0.000000	2227.679199	102927.664063
0.000000	2228.997803	102721.460938
0.000000	2230.316406	102920.570313
0.000000	2231.635010	103125.046875
0.000000	2232.953613	102660.531250
0.000000	2234.272217	103214.203125
0.000000	2235.590820	103523.273438
0.000000	2236.909424	103550.359375
0.000000	2238.228027	102728.593750
0.000000	2239.546631	103180.492188
0.000000	2240.865234	103815.250000
0.000000	2242.183838	103238.171875
0.000000	2243.502441	103327.929688
0.000000	2244.821045	103089.945313
0.000000	2246.139648	103631.390625
0.000000	2247.458252	103495.164063
0.000000	2248.776855	103473.265625
0.000000	2250.095459	103464.062500
0.000000	2251.414063	103479.023438
0.000000	2252.732666	103263.210938
0.000000	2254.051270	103273.367188
0.000000	2255.369873	103403.734375
0.000000	2256.688477	103396.109375
0.000000	2258.007080	103112.562500
0.000000	2259.325684	103475.078125
0.000000	2260.644287	103349.945313
0.000000	2261.962891	103704.757813
0.000000	2263.281494	103483.367188
0.000000	2264.600098	103355.304688
0.000000	2265.918701	103552.085938
0.000000	2267.237305	103399.734375
0.000000	2268.555908	103456.617188
0.000000	2269.874512	103129.179688
0.000000	2271.193115	102575.734375
0.000000	2272.511719	103234.015625
0.000000	2273.830322	103421.015625
0.000000	2275.148926	103157.539063
0.000000	2276.467529	103376.335938
0.000000	2277.786133	103144.906250
0.000000	2279.104736	103373.187500
0.000000	2280.423340	103595.289063
0.000000	2281.741943	103299.562500
0.000000	2283.060547	103130.484375
0.000000	2284.379150	103350.687500
0.000000	2285.697754	103264.906250
0.000000	2287.016357	103327.726563
0.000000	2288.334961	103110.617188
0.000000	2289.653564	103073.328125
0.000000	2290.972168	103634.132813
0.000000	2292.290771	102885.382813
0.000000	2293.609375	102855.273438
0.000000	2294.927979	103232.351563
0.000000	2296.246582	103368.632813
0.000000	2297.565186	102532.000000
0.000000	2298.883789	102760.781250
0.000000	2300.202393	102755.695313
0.000000	2301.520996	102491.906250
0.000000	2302.839600	102695.234375
0.000000	2304.158203	102542.250000
0.000000	2305.476807	102469.289063
0.000000	2306.795410	102959.453125
0.000000	2308.114014	102777.906250
0.000000	2309.432617	102819.765625
0.000000	2310.751221	102710.312500
0.000000	2312.069824	102548.960938
0.000000	2313.388428	102259.484375
0.000000	2314.707031	103035.562500
0.000000	2316.025635	103480.781250
0.000000	2317.344238	102773.890625
0.000000	2318.662842	102739.492188
0.000000	2319.981445	103009.687500
0.000000	2321.300049	102835.492188
0.000000	2322.618652	102999.468750
0.000000	2323.937256	103164.406250
0.000000	2325.255859	103149.328125
0.000000	2326.574463	103539.742188
0.000000	2327.893066	103180.960938
0.000000	2329.211670	103175.835938
0.000000	2330.530273	103147.054688
0.000000	2331.848877	103020.062500
0.000000	2333.167480	102908.500000
0.000000	2334.486084	102925.843750
0.000000	2335.804688	103307.750000
0.000000	2337.123291	103487.796875
0.000000	2338.441895	103556.898438
0.000000	2339.760498	102983.210938
0.000000	2341.079102	103529.414063
0.000000	2342.397705	103685.515625
0.000000	2343.716309	103575.992188
0.000000	2345.034912	103323.671875
0.000000	2346.353516	103440.507813
0.000000	2347.672119	103406.000000
0.000000	2348.990723	103358.062500
0.000000	2350.309326	103651.773438
0.000000	2351.627930	103565.773438
0.000000	2352.946533	103611.273438
0.000000	2354.265137	103130.164063
0.000000	2355.583740	103352.273438
0.000000	2356.902344	103108.250000
0.000000	2358.220947	103447.953125
0.000000	2359.539551	103722.218750
0.000000	2360.858154	103449.476563
0.000000	2362.176758	103265.898438
0.000000	2363.495361	103904.406250
0.000000	2364.813965	103552.359375
0.000000	2366.132568	103726.726563
0.000000	2367.451172	103608.429688
0.000000	2368.769775	103225.023438
0.000000	2370.088379	103311.539063
0.000000	2371.406982	103575.234375
0.000000	2372.725586	103559.718750
0.000000	2374.044189	103532.093750
0.000000	2375.362793	103811.390625
0.000000	2376.681396	103850.343750
0.000000	2378.000000	103685.812500
0.000000	2379.318604	103240.101563
0.000000	2380.637207	103419.750000
0.000000	2381.955811	102898.781250
0.000000	2383.274414	103117.601563
0.000000	2384.593018	103619.242188
0.000000	2385.911621	103464.046875
0.000000	2387.230225	103334.960938
0.000000	2388.548828	103402.906250
0.000000	2389.867432	103589.093750
0.000000	2391.186035	103159.859375
0.000000	2392.504639	103410.117188
0.000000	2393.823242	103675.351563
0.000000	2395.141846	103796.406250
0.000000	2396.460449	103959.929688
0.000000	2397.779053	104050.226563
0.000000	2399.097656	103432.007813
0.000000	2400.416260	103239.570313
0.000000	2401.734863	103509.617188
0.000000	2403.053467	103160.507813
0.000000	2404.372070	103423.632813
0.000000	2405.690674	103842.078125
0.000000	2407.009277	103725.523438
0.000000	2408.327881	103795.515625
0.000000	2409.646484	103422.789063
0.000000	2410.965088	103592.132813
0.000000	2412.283691	103342.585938
0.000000	2413.602295	103283.875000
0.000000	2414.920898	103800.296875
0.000000	2416.239502	103309.101563
0.000000	2417.558105	103306.984375
0.000000	2418.876709	103503.851563
0.000000	2420.195313	103202.218750
0.000000	2421.513916	102924.968750
0.000000	2422.832520	103159.898438
0.000000	2424.151123	103753.507813
0.000000	2425.469727	103631.257813
0.000000	2426.788330	103348.070313
0.000000	2428.106934	103223.562500
0.000000	2429.425537	103238.695313
0.000000	2430.744141	103406.265625
0.000000	2432.062744	103486.148438
0.000000	2433.381348	103429.125000
0.000000	2434.699951	103767.968750
0.000000	2436.018555	103498.335938
0.000000	2437.337158	103737.343750
0.000000	2438.655762	103486.695313
0.000000	2439.974365	103316.492188
0.000000	2441.292969	103309.312500
0.000000	2442.611572	103671.992188
0.000000	2443.930176	103396.359375
0.000000	2445.248779	103461.132813
0.000000	2446.567383	103387.617188
0.000000	2447.885986	103358.046875
0.000000	2449.204590	103100.476563
0.000000	2450.523193	103542.242188
0.000000	2451.841797	103375.507813
0.000000	2453.160400	103195.656250
0.000000	2454.479004	103379.531250
0.000000	2455.797607	103746.382813
0.000000	2457.116211	103580.257813
0.000000	2458.434814	103447.343750
0.000000	2459.753418	103403.617188
0.000000	2461.072021	103364.015625
0.000000	2462.390625	103568.593750
0.000000	2463.709229	103600.101563
0.000000	2465.027832	103332.437500
0.000000	2466.346436	103384.625000
0.000000	2467.665039	103078.304688
0.000000	2468.983643	102881.937500
0.000000	2470.302246	103236.687500
0.000000	2471.620850	103716.500000
0.000000	2472.939453	103567.648438
0.000000	2474.258057	103582.164063
0.000000	2475.576660	103908.398438
0.000000	2476.895264	103980.828125
0.000000	2478.213867	103787.890625
0.000000	2479.532471	103904.382813
0.000000	2480.851074	103740.703125
0.000000	2482.169678	103761.632813
0.000000	2483.488281	103775.453125
0.000000	2484.806885	104043.109375
0.000000	2486.125488	103087.812500
0.000000	2487.444092	103662.093750
0.000000	2488.762695	103556.507813
0.000000	2490.081299	103300.796875
0.000000	2491.399902	103751.867188
0.000000	2492.718506	103632.617188
0.000000	2494.037109	103612.476563
0.000000	2495.355713	103946.953125
0.000000	2496.674316	103569.921875
0.000000	2497.992920	103656.507813
0.000000	2499.311523	103722.835938
0.000000	2500.630127	103669.585938
0.000000	2501.948730	103142.789063
0.000000	2503.267334	103111.625000
0.000000	2504.585938	103249.179688
0.000000	2505.904541	102912.437500
0.000000	2507.223145	103040.015625
0.000000	2508.541748	103150.890625
0.000000	2509.860352	102985.281250
0.000000	2511.178955	103403.804688
0.000000	2512.497559	103431.593750
0.000000	2513.816162	103244.953125
0.000000	2515.134766	102999.226563
0.000000	2516.453369	103168.101563
0.000000	2517.771973	102798.687500
0.000000	2519.090576	102962.968750
0.000000	2520.409180	102844.500000
0.000000	2521.727783	102802.546875
0.000000	2523.046387	103003.609375
0.000000	2524.364990	102960.671875
0.000000	2525.683594	102606.679688
0.000000	2527.002197	102684.906250
0.000000	2528.320801	102476.140625
0.000000	2529.639404	102595.937500
0.000000	2530.958008	102915.906250
0.000000	2532.276611	102721.984375
0.000000	2533.595215	103231.320313
0.000000	2534.913818	102835.976563
0.000000	2536.232422	102232.437500
0.000000	2537.551025	101961.843750
0.000000	2538.869629	102435.335938
0.000000	2540.188232	101992.453125
0.000000	2541.506836	101764.375000
0.000000	2542.825439	101989.171875
0.000000	2544.144043	102179.375000
0.000000	2545.462646	101298.820313
0.000000	2546.781250	102027.765625
0.000000	2548.099854	101208.593750
0.000000	2549.418457	101510.875000
0.000000	2550.737061	101445.476563
0.000000	2552.055664	101424.140625
0.000000	2553.374268	101607.656250
0.000000	2554.692871	101672.015625
0.000000	2556.011475	101685.007813
0.000000	2557.330078	101909.539063
0.000000	2558.648682	101337.867188
0.000000	2559.967285	101862.148438
0.000000	2561.285889	101719.328125
0.000000	2562.604492	101414.312500
0.000000	2563.923096	101191.218750
0.000000	2565.241699	101525.414063
0.000000	2566.560303	101464.375000
0.000000	2567.878906	101266.851563
0.000000	2569.197510	101250.507813
0.000000	2570.516113	101081.898438
0.000000	2571.834717	101387.171875
0.000000	2573.153320	101743.507813
0.000000	2574.471924	101376.617188
0.000000	2575.790527	101283.617188
0.000000	2577.109131	101107.101563
0.000000	2578.427734	101521.492188
0.000000	2579.746338	101431.054688
0.000000	2581.064941	101323.000000
0.000000	2582.383545	101325.812500
0.000000	2583.702148	101041.343750
0.000000	2585.020752	100715.289063
0.000000	2586.339355	101422.640625
0.000000	2587.657959	100629.296875
0.000000	2588.976563	100760.140625
0.000000	2590.295166	101192.125000
0.000000	2591.613770	101030.976563
0.000000	2592.932373	100886.117188
0.000000	2594.250977	100872.398438
0.000000	2595.569580	101089.914063
0.000000	2596.888184	101126.664063
0.000000	2598.206787	101115.023438
0.000000	2599.525391	101181.750000
0.000000	2600.843994	101002.789063
0.000000	2602.162598	101377.710938
0.000000	2603.481201	101075.078125
0.000000	2604.799805	101074.609375
0.000000	2606.118408	100989.023438
0.000000	2607.437012	101205.523438
0.000000	2608.755615	101371.804688
0.000000	2610.074219	101176.375000
0.000000	2611.392822	100995.445313
0.000000	2612.711426	101131.203125
0.000000	2614.030029	100696.265625
0.000000	2615.348633	100943.023438
0.000000	2616.667236	101100.539063
0.000000	2617.985840	100894.812500
0.000000	2619.304443	101150.968750
0.000000	2620.623047	101050.617188
0.000000	2621.941650	100946.179688
0.000000	2623.260254	100873.804688
0.000000	2624.578857	100700.734375
0.000000	2625.897461	100986.859375
0.000000	2627.216064	100784.906250
0.000000	2628.534668	100799.359375
0.000000	2629.853271	101196.601563
0.000000	2631.171875	100865.335938
0.000000	2632.490479	101077.242188
0.000000	2633.809082	101245.757813
0.000000	2635.127686	101348.937500
0.000000	2636.446289	100920.351563
0.000000	2637.764893	100038.500000
0.000000	2639.083496	100773.843750
0.000000	2640.402100	101061.414063
0.000000	2641.720703	100886.109375
0.000000	2643.039307	100362.078125
0.000000	2644.357910	100663.804688
0.000000	2645.676514	100967.218750
0.000000	2646.995117	100952.304688
0.000000	2648.313721	100802.234375
0.000000	2649.632324	100993.710938
0.000000	2650.950928	100659.429688
0.000000	2652.269531	100463.890625
0.000000	2653.588135	100609.710938
0.000000	2654.906738	100810.039063
0.000000	2656.225342	100611.875000
0.000000	2657.543945	100846.960938
0.000000	2658.862549	100647.984375
0.000000	2660.181152	100462.343750
0.000000	2661.499756	100008.882813
0.000000	2662.818359	100850.804688
0.000000	2664.136963	100639.265625
0.000000	2665.455566	100544.757813
0.000000	2666.774170	100674.648438
0.000000	2668.092773	100345.828125
0.000000	2669.411377	99927.703125
0.000000	2670.729980	100470.757813
0.000000	2672.048584	100651.757813
0.000000	2673.367188	100252.335938
0.000000	2674.685791	100201.406250
0.000000	2676.004395	100279.218750
0.000000	2677.322998	99754.640625
0.000000	2678.641602	99533.718750
0.000000	2679.960205	99768.226563
0.000000	2681.278809	99770.828125
0.000000	2682.597412	99521.031250
0.000000	2683.916016	99381.992188
0.000000	2685.234619	99274.062500
0.000000	2686.553223	100114.171875
0.000000	2687.871826	99889.101563
0.000000	2689.190430	99741.398438
0.000000	2690.509033	99283.312500
0.000000	2691.827637	99762.015625
0.000000	2693.146240	99832.906250
0.000000	2694.464844	99526.460938
0.000000	2695.783447	99558.015625
0.000000	2697.102051	99438.890625
0.000000	2698.420654	99655.914063
0.000000	2699.739258	99088.851563
0.000000	2701.057861	99188.320313
0.000000	2702.376465	99356.640625
0.000000	2703.695068	99131.140625
0.000000	2705.013672	99153.078125
0.000000	2706.332275	99135.523438
0.000000	2707.650879	99096.796875
0.000000	2708.969482	99516.375000
0.000000	2710.288086	99826.078125
0.000000	2711.606689	99185.562500
0.000000	2712.925293	99230.921875
0.000000	2714.243896	99045.750000
0.000000	2715.562500	99133.328125
0.000000	2716.881104	98798.171875
0.000000	2718.199707	98960.148438
0.000000	2719.518311	98653.875000
0.000000	2720.836914	99237.335938
0.000000	2722.155518	98866.890625
0.000000	2723.474121	99542.515625
0.000000	2724.792725	98740.132813
0.000000	2726.111328	99458.507813
0.000000	2727.429932	99176.523438
0.000000	2728.748535	98407.210938
0.000000	2730.067139	99200.062500
0.000000	2731.385742	98995.796875
0.000000	2732.704346	99245.140625
0.000000	2734.022949	98422.796875
0.000000	2735.341553	99072.898438
0.000000	2736.660156	99153.179688
0.000000	2737.978760	98886.195313
0.000000	2739.297363	98648.132813
0.000000	2740.615967	98970.992188
0.000000	2741.934570	99020.914063
0.000000	2743.253174	98946.210938
0.000000	2744.571777	98600.226563
0.000000	2745.890381	98583.921875
0.000000	2747.208984	98575.039063
0.000000	2748.527588	98347.664063
0.000000	2749.846191	98619.164063
0.000000	2751.164795	98157.132813
0.000000	2752.483398	98745.015625
0.000000	2753.802002	98343.578125
0.000000	2755.120605	98499.476563
0.000000	2756.439209	98244.609375
0.000000	2757.757813	98451.773438
0.000000	2759.076416	98522.679688
0.000000	2760.395020	98455.085938
0.000000	2761.713623	98311.289063
0.000000	2763.032227	98480.289063
0.000000	2764.350830	98223.000000
0.000000	2765.669434	98409.515625
0.000000	2766.988037	98163.312500
0.000000	2768.306641	98581.109375
0.000000	2769.625244	98308.664063
0.000000	2770.943848	98136.617188
0.000000	2772.262451	97676.164063
0.000000	2773.581055	98740.789063
0.000000	2774.899658	97631.765625
0.000000	2776.218262	98272.187500
0.000000	2777.536865	97915.898438
0.000000	2778.855469	97595.031250
0.000000	2780.174072	97577.445313
0.000000	2781.492676	97377.382813
0.000000	2782.811279	98122.117188
0.000000	2784.129883	97894.828125
0.000000	2785.448486	98028.296875
0.000000	2786.767090	97862.765625
0.000000	2788.085693	97693.914063
0.000000	2789.404297	97494.445313
0.000000	2790.722900	97666.796875
0.000000	2792.041504	97773.578125
0.000000	2793.360107	97785.382813
0.000000	2794.678711	97492.031250
0.000000	2795.997314	97740.203125
0.000000	2797.315918	97788.140625
0.000000	2798.634521	97687.585938
0.000000	2799.953125	97386.367188
0.000000	2801.271729	97659.710938
0.000000	2802.590332	97683.218750
0.000000	2803.908936	97217.335938
0.000000	2805.227539	97216.148438
0.000000	2806.546143	97578.359375
0.000000	2807.864746	97474.625000
0.000000	2809.183350	97543.289063
0.000000	2810.501953	97352.460938
0.000000	2811.820557	97131.742188
0.000000	2813.139160	97729.085938
0.000000	2814.457764	97560.960938
0.000000	2815.776367	98009.164063
0.000000	2817.094971	97369.468750
0.000000	2818.413574	97791.875000
0.000000	2819.732178	97830.625000
0.000000	2821.050781	97762.109375
0.000000	2822.369385	97249.945313
0.000000	2823.687988	97618.460938
0.000000	2825.006592	97581.539063
0.000000	2826.325195	97022.765625
0.000000	2827.643799	97140.460938
0.000000	2828.962402	97406.773438
0.000000	2830.281006	97769.398438
0.000000	2831.599609	97429.703125
0.000000	2832.918213	97203.070313
0.000000	2834.236816	97375.257813
0.000000	2835.555420	96812.750000
0.000000	2836.874023	97040.812500
0.000000	2838.192627	97231.531250
0.000000	2839.511230	97274.828125
0.000000	2840.829834	97416.007813
0.000000	2842.148438	97157.070313
0.000000	2843.467041	97199.406250
0.000000	2844.785645	97421.960938
0.000000	2846.104248	97237.015625
0.000000	2847.422852	97314.843750
0.000000	2848.741455	97115.859375
0.000000	2850.060059	96969.539063
0.000000	2851.378662	97686.898438
0.000000	2852.697266	97566.710938
0.000000	2854.015869	97513.554688
0.000000	2855.334473	97115.968750
0.000000	2856.653076	97197.125000
0.000000	2857.971680	97338.156250
0.000000	2859.290283	97652.367188
0.000000	2860.608887	97386.210938
0.000000	2861.927490	97278.585938
0.000000	2863.246094	97103.468750
0.000000	2864.564697	97024.914063
0.000000	2865.883301	97119.882813
0.000000	2867.201904	97227.187500
0.000000	2868.520508	97222.687500
0.000000	2869.839111	97153.609375
0.000000	2871.157715	96947.671875
0.000000	2872.476318	97223.023438
0.000000	2873.794922	96712.007813
0.000000	2875.113525	96602.906250
0.000000	2876.432129	96619.320313
0.000000	2877.750732	97046.281250
0.000000	2879.069336	96992.781250
0.000000	2880.387939	97285.000000
0.000000	2881.706543	96905.921875
0.000000	2883.025146	97007.726563
0.000000	2884.343750	97133.390625
0.000000	2885.662354	97057.820313
0.000000	2886.980957	96779.757813
0.000000	2888.299561	96796.421875
0.000000	2889.618164	97195.296875
0.000000	2890.936768	97352.242188
0.000000	2892.255371	97209.570313
0.000000	2893.573975	97206.312500
0.000000	2894.892578	96935.265625
0.000000	2896.211182	97391.968750
0.000000	2897.529785	97009.343750
0.000000	2898.848389	96942.429688
0.000000	2900.166992	96800.570313
0.000000	2901.485596	97137.140625
0.000000	2902.804199	97079.648438
0.000000	2904.122803	97049.265625
0.000000	2905.441406	97030.054688
0.000000	2906.760010	97332.562500
0.000000	2908.078613	96369.867188
0.000000	2909.397217	96690.507813
0.000000	2910.715820	96912.375000
0.000000	2912.034424	96403.000000
0.000000	2913.353027	96634.164063
0.000000	2914.671631	96427.710938
0.000000	2915.990234	96307.906250
0.000000	2917.308838	96644.304688
0.000000	2918.627441	96210.867188
0.000000	2919.946045	96530.789063
0.000000	2921.264648	96512.500000
0.000000	2922.583252	96203.820313
0.000000	2923.901855	95953.773438
0.000000	2925.220459	95851.273438
0.000000	2926.539063	96134.023438
0.000000	2927.857666	96448.148438
0.000000	2929.176270	96275.203125
0.000000	2930.494873	96460.164063
0.000000	2931.813477	96202.546875
0.000000	2933.132080	96016.656250
0.000000	2934.450684	95953.625000
0.000000	2935.769287	96098.281250
0.000000	2937.087891	96156.953125
0.000000	2938.406494	96327.984375
0.000000	2939.725098	96641.484375
0.000000	2941.043701	96529.914063
0.000000	2942.362305	96781.953125
0.000000	2943.680908	97265.453125
0.000000	2944.999512	97339.015625
0.000000	2946.318115	97189.906250
0.000000	2947.636719	97539.085938
0.000000	2948.955322	96870.531250
0.000000	2950.273926	96955.726563
0.000000	2951.592529	97097.421875
0.000000	2952.911133	97223.765625
0.000000	2954.229736	97137.984375
0.000000	2955.548340	97052.867188
0.000000	2956.866943	96894.203125
0.000000	2958.185547	96865.476563
0.000000	2959.504150	96544.164063
0.000000	2960.822754	96822.523438
0.000000	2962.141357	96218.132813
0.000000	2963.459961	95977.687500
0.000000	2964.778564	95803.484375
0.000000	2966.097168	96275.437500
0.000000	2967.415771	95536.703125
0.000000	2968.734375	95810.898438
0.000000	2970.052979	96269.242188
0.000000	2971.371582	96068.171875
0.000000	2972.690186	95833.960938
0.000000	2974.008789	95832.273438
0.000000	2975.327393	95479.062500
0.000000	2976.645996	95774.562500
0.000000	2977.964600	95989.539063
0.000000	2979.283203	95895.257813
0.000000	2980.601807	95858.609375
0.000000	2981.920410	95534.085938
0.000000	2983.239014	96239.453125
0.000000	2984.557617	96069.437500
0.000000	2985.876221	95520.078125
0.000000	2987.194824	95993.007813
0.000000	2988.513428	96084.195313
0.000000	2989.832031	95716.757813
0.000000	2991.150635	95515.070313
0.000000	2992.469238	95814.281250
0.000000	2993.787842	95981.609375
0.000000	2995.106445	95665.390625
0.000000	2996.425049	95951.421875
0.000000	2997.743652	95529.054688
0.000000	2999.062256	95447.921875
0.000000	3000.380859	95474.054688
