#DatasetIndex		#Wave		#Intensity
0.000000	699.292969	34100.890625
0.000000	700.611694	34225.714844
0.000000	701.930420	34279.937500
0.000000	703.249146	34295.839844
0.000000	704.567871	34394.847656
0.000000	705.886597	34470.007813
0.000000	707.205322	34370.046875
0.000000	708.524048	34425.546875
0.000000	709.842773	34463.351563
0.000000	711.161499	34273.511719
0.000000	712.480225	34712.894531
0.000000	713.798950	34995.171875
0.000000	715.117676	34976.136719
0.000000	716.436401	35008.152344
0.000000	717.755127	34885.246094
0.000000	719.073853	35031.714844
0.000000	720.392578	35043.300781
0.000000	721.711304	35113.777344
0.000000	723.030029	35170.085938
0.000000	724.348755	35213.187500
0.000000	725.667480	35334.859375
0.000000	726.986206	35589.648438
0.000000	728.304932	35599.550781
0.000000	729.623657	35456.968750
0.000000	730.942383	35554.164063
0.000000	732.261108	35688.730469
0.000000	733.579834	35612.527344
0.000000	734.898560	35491.531250
0.000000	736.217285	35724.687500
0.000000	737.536011	35850.734375
0.000000	738.854736	35425.046875
0.000000	740.173462	35715.355469
0.000000	741.492188	35732.769531
0.000000	742.810913	35612.921875
0.000000	744.129639	35536.761719
0.000000	745.448364	35598.402344
0.000000	746.767090	36136.507813
0.000000	748.085815	36139.425781
0.000000	749.404541	36226.945313
0.000000	750.723267	36067.765625
0.000000	752.041992	35892.789063
0.000000	753.360718	35762.054688
0.000000	754.679443	35771.402344
0.000000	755.998169	36090.035156
0.000000	757.316895	35979.246094
0.000000	758.635620	35930.488281
0.000000	759.954346	36008.062500
0.000000	761.273071	36194.531250
0.000000	762.591797	36318.761719
0.000000	763.910522	36360.273438
0.000000	765.229248	36407.148438
0.000000	766.547974	36355.156250
0.000000	767.866699	36370.925781
0.000000	769.185425	36528.441406
0.000000	770.504150	36646.417969
0.000000	771.822876	36623.148438
0.000000	773.141602	36592.042969
0.000000	774.460327	36659.488281
0.000000	775.779053	36728.234375
0.000000	777.097778	36825.625000
0.000000	778.416504	37033.632813
0.000000	779.735229	36985.742188
0.000000	781.053955	36954.066406
0.000000	782.372681	36822.550781
0.000000	783.691406	36776.785156
0.000000	785.010132	37040.050781
0.000000	786.328857	37182.042969
0.000000	787.647583	37306.832031
0.000000	788.966309	37203.003906
0.000000	790.285034	37199.566406
0.000000	791.603760	37316.105469
0.000000	792.922485	37464.515625
0.000000	794.241211	37507.949219
0.000000	795.559937	37473.320313
0.000000	796.878662	37874.234375
0.000000	798.197388	37548.660156
0.000000	799.516113	37554.832031
0.000000	800.834839	37598.878906
0.000000	802.153564	37767.484375
0.000000	803.472290	38147.503906
0.000000	804.791016	38463.566406
0.000000	806.109741	38231.035156
0.000000	807.428467	38093.070313
0.000000	808.747192	38364.289063
0.000000	810.065918	38574.632813
0.000000	811.384644	38445.656250
0.000000	812.703369	38297.929688
0.000000	814.022095	38234.183594
0.000000	815.340820	38240.527344
0.000000	816.659546	38517.070313
0.000000	817.978271	38439.554688
0.000000	819.296997	38757.281250
0.000000	820.615723	38779.820313
0.000000	821.934448	38868.253906
0.000000	823.253174	38869.019531
0.000000	824.571899	38832.851563
0.000000	825.890625	38970.781250
0.000000	827.209351	39057.332031
0.000000	828.528076	38795.992188
0.000000	829.846802	38933.250000
0.000000	831.165527	39098.062500
0.000000	832.484253	38991.117188
0.000000	833.802979	38881.343750
0.000000	835.121704	38949.218750
0.000000	836.440430	39065.296875
0.000000	837.759155	39115.035156
0.000000	839.077881	39182.214844
0.000000	840.396606	39231.898438
0.000000	841.715332	39341.035156
0.000000	843.034058	39199.511719
0.000000	844.352783	39092.015625
0.000000	845.671509	39192.773438
0.000000	846.990234	39267.230469
0.000000	848.308960	39109.976563
0.000000	849.627686	39703.648438
0.000000	850.946411	39472.906250
0.000000	852.265137	39325.027344
0.000000	853.583862	39370.285156
0.000000	854.902588	39489.210938
0.000000	856.221313	39537.941406
0.000000	857.540039	39512.183594
0.000000	858.858765	39573.140625
0.000000	860.177490	39521.187500
0.000000	861.496216	39408.246094
0.000000	862.814941	39529.226563
0.000000	864.133667	39613.585938
0.000000	865.452393	39679.878906
0.000000	866.771118	39848.257813
0.000000	868.089844	39982.648438
0.000000	869.408569	39737.777344
0.000000	870.727295	40181.140625
0.000000	872.046021	40154.183594
0.000000	873.364746	40238.136719
0.000000	874.683472	40341.968750
0.000000	876.002197	40162.539063
0.000000	877.320923	40014.531250
0.000000	878.639648	40189.179688
0.000000	879.958374	40279.148438
0.000000	881.277100	40359.722656
0.000000	882.595825	40326.644531
0.000000	883.914551	40561.058594
0.000000	885.233276	40769.417969
0.000000	886.552002	40716.964844
0.000000	887.870728	40709.171875
0.000000	889.189453	40981.398438
0.000000	890.508179	41226.503906
0.000000	891.826904	41009.523438
0.000000	893.145630	40814.828125
0.000000	894.464355	41077.976563
0.000000	895.783081	41187.695313
0.000000	897.101807	41245.191406
0.000000	898.420532	41176.328125
0.000000	899.739258	41145.550781
0.000000	901.057983	41338.570313
0.000000	902.376709	41369.402344
0.000000	903.695435	41405.527344
0.000000	905.014160	41586.003906
0.000000	906.332886	41702.113281
0.000000	907.651611	41790.242188
0.000000	908.970337	41691.406250
0.000000	910.289063	41611.433594
0.000000	911.607788	41750.000000
0.000000	912.926514	41923.605469
0.000000	914.245239	42091.320313
0.000000	915.563965	41672.667969
0.000000	916.882690	41785.269531
0.000000	918.201416	41985.644531
0.000000	919.520142	42072.609375
0.000000	920.838867	42142.070313
0.000000	922.157593	42207.031250
0.000000	923.476318	42207.308594
0.000000	924.795044	42266.367188
0.000000	926.113770	42065.843750
0.000000	927.432495	42288.843750
0.000000	928.751221	42383.871094
0.000000	930.069946	42310.867188
0.000000	931.388672	42297.839844
0.000000	932.707397	42376.417969
0.000000	934.026123	42383.816406
0.000000	935.344849	42332.476563
0.000000	936.663574	42711.667969
0.000000	937.982300	42620.546875
0.000000	939.301025	42565.554688
0.000000	940.619751	42672.496094
0.000000	941.938477	42510.164063
0.000000	943.257202	42422.242188
0.000000	944.575928	42628.105469
0.000000	945.894653	42945.789063
0.000000	947.213379	43087.617188
0.000000	948.532104	42868.246094
0.000000	949.850830	42648.511719
0.000000	951.169556	42914.343750
0.000000	952.488281	42982.429688
0.000000	953.807007	42696.386719
0.000000	955.125732	42625.171875
0.000000	956.444458	42837.093750
0.000000	957.763184	42941.843750
0.000000	959.081909	42960.542969
0.000000	960.400635	43005.675781
0.000000	961.719360	43094.761719
0.000000	963.038086	43078.742188
0.000000	964.356812	43033.792969
0.000000	965.675537	43180.031250
0.000000	966.994263	43212.394531
0.000000	968.312988	43173.492188
0.000000	969.631714	43359.523438
0.000000	970.950439	43520.484375
0.000000	972.269165	43487.964844
0.000000	973.587891	43871.390625
0.000000	974.906616	43640.582031
0.000000	976.225342	43602.113281
0.000000	977.544067	43908.921875
0.000000	978.862793	44043.328125
0.000000	980.181519	43943.175781
0.000000	981.500244	43953.542969
0.000000	982.818970	43986.390625
0.000000	984.137695	44006.675781
0.000000	985.456421	44221.316406
0.000000	986.775146	44172.593750
0.000000	988.093872	44202.515625
0.000000	989.412598	44403.328125
0.000000	990.731323	44638.593750
0.000000	992.050049	44752.421875
0.000000	993.368774	44720.460938
0.000000	994.687500	44646.730469
0.000000	996.006226	44637.078125
0.000000	997.324951	44823.753906
0.000000	998.643677	44972.976563
0.000000	999.962402	44715.566406
0.000000	1001.281128	44922.152344
0.000000	1002.599854	45088.707031
0.000000	1003.918579	45131.644531
0.000000	1005.237305	45258.476563
0.000000	1006.556030	45224.269531
0.000000	1007.874756	45124.351563
0.000000	1009.193481	45149.828125
0.000000	1010.512207	45383.851563
0.000000	1011.830933	45571.609375
0.000000	1013.149658	45452.347656
0.000000	1014.468384	45470.171875
0.000000	1015.787109	45606.667969
0.000000	1017.105835	45681.554688
0.000000	1018.424561	45641.867188
0.000000	1019.743286	45341.960938
0.000000	1021.062012	45396.757813
0.000000	1022.380737	45919.753906
0.000000	1023.699463	45831.816406
0.000000	1025.018188	45410.007813
0.000000	1026.336914	45519.933594
0.000000	1027.655640	45716.917969
0.000000	1028.974365	45672.613281
0.000000	1030.293091	45707.496094
0.000000	1031.611816	45934.835938
0.000000	1032.930542	45651.996094
0.000000	1034.249268	45355.269531
0.000000	1035.567993	45671.980469
0.000000	1036.886719	45908.125000
0.000000	1038.205444	46131.589844
0.000000	1039.524170	46052.699219
0.000000	1040.842896	45862.019531
0.000000	1042.161621	45883.273438
0.000000	1043.480347	45978.136719
0.000000	1044.799072	45693.968750
0.000000	1046.117798	45363.062500
0.000000	1047.436523	45927.914063
0.000000	1048.755249	46112.289063
0.000000	1050.073975	46032.789063
0.000000	1051.392700	46289.390625
0.000000	1052.711426	46348.945313
0.000000	1054.030151	46196.132813
0.000000	1055.348877	46203.789063
0.000000	1056.667603	46313.507813
0.000000	1057.986328	46273.238281
0.000000	1059.305054	46352.355469
0.000000	1060.623779	46390.550781
0.000000	1061.942505	46467.148438
0.000000	1063.261230	46518.289063
0.000000	1064.579956	46634.070313
0.000000	1065.898682	46594.980469
0.000000	1067.217407	46517.617188
0.000000	1068.536133	46493.648438
0.000000	1069.854858	46439.097656
0.000000	1071.173584	46806.621094
0.000000	1072.492310	46593.539063
0.000000	1073.811035	46871.539063
0.000000	1075.129761	46891.109375
0.000000	1076.448486	46852.429688
0.000000	1077.767212	47124.183594
0.000000	1079.085938	47327.261719
0.000000	1080.404663	47289.781250
0.000000	1081.723389	47285.480469
0.000000	1083.042114	47450.390625
0.000000	1084.360840	47427.113281
0.000000	1085.679565	47125.078125
0.000000	1086.998291	47231.390625
0.000000	1088.317017	47724.023438
0.000000	1089.635742	47853.562500
0.000000	1090.954468	47695.316406
0.000000	1092.273193	47724.816406
0.000000	1093.591919	48019.914063
0.000000	1094.910645	48123.890625
0.000000	1096.229370	47943.226563
0.000000	1097.548096	48257.949219
0.000000	1098.866821	48186.886719
0.000000	1100.185547	48234.937500
0.000000	1101.504272	48041.414063
0.000000	1102.822998	48091.765625
0.000000	1104.141724	48290.578125
0.000000	1105.460449	48467.675781
0.000000	1106.779175	48513.886719
0.000000	1108.097900	48666.937500
0.000000	1109.416626	48849.914063
0.000000	1110.735352	48511.585938
0.000000	1112.054077	48796.355469
0.000000	1113.372803	48526.503906
0.000000	1114.691528	48705.332031
0.000000	1116.010254	48629.539063
0.000000	1117.328979	48776.492188
0.000000	1118.647705	48832.140625
0.000000	1119.966431	48827.437500
0.000000	1121.285156	49182.195313
0.000000	1122.603882	49399.062500
0.000000	1123.922607	48779.636719
0.000000	1125.241333	48850.781250
0.000000	1126.560059	49126.363281
0.000000	1127.878784	48636.148438
0.000000	1129.197510	48749.855469
0.000000	1130.516235	48820.066406
0.000000	1131.834961	49007.140625
0.000000	1133.153687	49076.433594
0.000000	1134.472412	49030.246094
0.000000	1135.791138	49110.406250
0.000000	1137.109863	49223.464844
0.000000	1138.428589	49028.832031
0.000000	1139.747314	49054.937500
0.000000	1141.066040	49586.753906
0.000000	1142.384766	49444.929688
0.000000	1143.703491	49536.832031
0.000000	1145.022217	49135.250000
0.000000	1146.340942	49207.625000
0.000000	1147.659668	49410.941406
0.000000	1148.978394	49370.300781
0.000000	1150.297119	49283.019531
0.000000	1151.615845	49280.777344
0.000000	1152.934570	49181.750000
0.000000	1154.253296	49439.828125
0.000000	1155.572021	49211.230469
0.000000	1156.890747	49627.257813
0.000000	1158.209473	49355.968750
0.000000	1159.528198	49358.066406
0.000000	1160.846924	49605.199219
0.000000	1162.165649	49761.472656
0.000000	1163.484375	49808.808594
0.000000	1164.803101	49940.542969
0.000000	1166.121826	50043.179688
0.000000	1167.440552	49901.277344
0.000000	1168.759277	50121.089844
0.000000	1170.078003	49973.578125
0.000000	1171.396729	49920.402344
0.000000	1172.715454	50003.253906
0.000000	1174.034180	50346.960938
0.000000	1175.352905	50474.578125
0.000000	1176.671631	50209.843750
0.000000	1177.990356	50266.699219
0.000000	1179.309082	50642.773438
0.000000	1180.627808	50595.078125
0.000000	1181.946533	50215.417969
0.000000	1183.265259	50442.621094
0.000000	1184.583984	50483.503906
0.000000	1185.902710	50691.031250
0.000000	1187.221436	50863.625000
0.000000	1188.540161	51040.316406
0.000000	1189.858887	51255.523438
0.000000	1191.177612	51077.000000
0.000000	1192.496338	51253.785156
0.000000	1193.815063	51505.882813
0.000000	1195.133789	51376.277344
0.000000	1196.452515	51230.917969
0.000000	1197.771240	51155.218750
0.000000	1199.089966	51225.203125
0.000000	1200.408691	51556.203125
0.000000	1201.727417	51426.859375
0.000000	1203.046143	51579.816406
0.000000	1204.364868	51646.859375
0.000000	1205.683594	51715.910156
0.000000	1207.002319	51784.148438
0.000000	1208.321045	51695.515625
0.000000	1209.639771	51704.679688
0.000000	1210.958496	51966.406250
0.000000	1212.277222	52113.796875
0.000000	1213.595947	52026.937500
0.000000	1214.914673	51944.515625
0.000000	1216.233398	51908.519531
0.000000	1217.552124	51991.417969
0.000000	1218.870850	52028.769531
0.000000	1220.189575	52079.390625
0.000000	1221.508301	52127.289063
0.000000	1222.827026	52332.042969
0.000000	1224.145752	52540.988281
0.000000	1225.464478	52597.105469
0.000000	1226.783203	52363.492188
0.000000	1228.101929	51983.273438
0.000000	1229.420654	52154.386719
0.000000	1230.739380	52423.332031
0.000000	1232.058105	52335.582031
0.000000	1233.376831	52521.734375
0.000000	1234.695557	52517.679688
0.000000	1236.014282	52478.773438
0.000000	1237.333008	52440.960938
0.000000	1238.651733	52492.082031
0.000000	1239.970459	52609.316406
0.000000	1241.289185	52636.753906
0.000000	1242.607910	52561.312500
0.000000	1243.926636	52669.785156
0.000000	1245.245361	52958.011719
0.000000	1246.564087	52523.648438
0.000000	1247.882813	52385.187500
0.000000	1249.201538	52647.355469
0.000000	1250.520264	52802.984375
0.000000	1251.838989	52915.593750
0.000000	1253.157715	52928.941406
0.000000	1254.476440	52824.308594
0.000000	1255.795166	52641.789063
0.000000	1257.113892	52664.093750
0.000000	1258.432617	52816.148438
0.000000	1259.751343	52851.976563
0.000000	1261.070068	52832.351563
0.000000	1262.388794	52783.539063
0.000000	1263.707520	53136.500000
0.000000	1265.026245	53175.703125
0.000000	1266.344971	52897.507813
0.000000	1267.663696	53267.062500
0.000000	1268.982422	53109.984375
0.000000	1270.301147	53114.253906
0.000000	1271.619873	53223.773438
0.000000	1272.938599	53282.113281
0.000000	1274.257324	53238.152344
0.000000	1275.576050	53313.285156
0.000000	1276.894775	53368.816406
0.000000	1278.213501	53111.429688
0.000000	1279.532227	53462.890625
0.000000	1280.850952	53620.972656
0.000000	1282.169678	53749.078125
0.000000	1283.488403	53767.714844
0.000000	1284.807129	53711.625000
0.000000	1286.125854	53549.777344
0.000000	1287.444580	53804.351563
0.000000	1288.763306	54042.660156
0.000000	1290.082031	54127.144531
0.000000	1291.400757	54131.343750
0.000000	1292.719482	54218.031250
0.000000	1294.038208	54292.136719
0.000000	1295.356934	54215.539063
0.000000	1296.675659	54391.378906
0.000000	1297.994385	54266.343750
0.000000	1299.313110	54780.406250
0.000000	1300.631836	54426.906250
0.000000	1301.950562	54630.468750
0.000000	1303.269287	54773.007813
0.000000	1304.588013	55178.300781
0.000000	1305.906738	55134.070313
0.000000	1307.225464	54822.687500
0.000000	1308.544189	54990.855469
0.000000	1309.862915	55272.335938
0.000000	1311.181641	55133.914063
0.000000	1312.500366	54976.566406
0.000000	1313.819092	55087.609375
0.000000	1315.137817	55198.394531
0.000000	1316.456543	55113.105469
0.000000	1317.775269	55046.710938
0.000000	1319.093994	54933.296875
0.000000	1320.412720	55425.187500
0.000000	1321.731445	55575.894531
0.000000	1323.050171	55398.765625
0.000000	1324.368896	55384.371094
0.000000	1325.687622	55606.871094
0.000000	1327.006348	55725.257813
0.000000	1328.325073	55692.652344
0.000000	1329.643799	55562.468750
0.000000	1330.962524	55524.066406
0.000000	1332.281250	55886.867188
0.000000	1333.599976	55893.718750
0.000000	1334.918701	55985.175781
0.000000	1336.237427	55604.742188
0.000000	1337.556152	55527.054688
0.000000	1338.874878	55808.484375
0.000000	1340.193604	55797.917969
0.000000	1341.512329	56055.421875
0.000000	1342.831055	55755.156250
0.000000	1344.149780	55717.300781
0.000000	1345.468506	55692.906250
0.000000	1346.787231	55684.179688
0.000000	1348.105957	55720.003906
0.000000	1349.424683	55555.417969
0.000000	1350.743408	55575.429688
0.000000	1352.062134	55843.093750
0.000000	1353.380859	55864.035156
0.000000	1354.699585	56049.351563
0.000000	1356.018311	55918.558594
0.000000	1357.337036	55932.648438
0.000000	1358.655762	56011.960938
0.000000	1359.974487	55902.332031
0.000000	1361.293213	56243.136719
0.000000	1362.611938	55923.371094
0.000000	1363.930664	55867.304688
0.000000	1365.249390	56114.519531
0.000000	1366.568115	56120.519531
0.000000	1367.886841	56011.558594
0.000000	1369.205566	56065.484375
0.000000	1370.524292	56136.421875
0.000000	1371.843018	56147.867188
0.000000	1373.161743	56323.750000
0.000000	1374.480469	56220.253906
0.000000	1375.799194	56160.027344
0.000000	1377.117920	56167.359375
0.000000	1378.436646	56446.527344
0.000000	1379.755371	56398.746094
0.000000	1381.074097	56611.898438
0.000000	1382.392822	56528.003906
0.000000	1383.711548	56535.855469
0.000000	1385.030273	56700.835938
0.000000	1386.348999	56769.964844
0.000000	1387.667725	56744.343750
0.000000	1388.986450	56722.191406
0.000000	1390.305176	56784.808594
0.000000	1391.623901	56975.257813
0.000000	1392.942627	56883.917969
0.000000	1394.261353	57191.765625
0.000000	1395.580078	57174.210938
0.000000	1396.898804	57306.898438
0.000000	1398.217529	57434.957031
0.000000	1399.536255	57488.957031
0.000000	1400.854980	57325.421875
0.000000	1402.173706	57202.726563
0.000000	1403.492432	57883.441406
0.000000	1404.811157	57773.074219
0.000000	1406.129883	57636.460938
0.000000	1407.448608	57894.996094
0.000000	1408.767334	57965.007813
0.000000	1410.086060	57868.742188
0.000000	1411.404785	57837.960938
0.000000	1412.723511	57983.187500
0.000000	1414.042236	58265.226563
0.000000	1415.360962	58129.050781
0.000000	1416.679688	58136.042969
0.000000	1417.998413	58540.640625
0.000000	1419.317139	58234.316406
0.000000	1420.635864	58035.886719
0.000000	1421.954590	58520.640625
0.000000	1423.273315	58461.183594
0.000000	1424.592041	58558.460938
0.000000	1425.910767	58651.078125
0.000000	1427.229492	58547.871094
0.000000	1428.548218	58696.027344
0.000000	1429.866943	58882.488281
0.000000	1431.185669	58847.496094
0.000000	1432.504395	58821.585938
0.000000	1433.823120	58746.585938
0.000000	1435.141846	58806.546875
0.000000	1436.460571	59149.050781
0.000000	1437.779297	59055.812500
0.000000	1439.098022	58805.851563
0.000000	1440.416748	58743.261719
0.000000	1441.735474	58955.660156
0.000000	1443.054199	59052.937500
0.000000	1444.372925	58982.933594
0.000000	1445.691650	59286.441406
0.000000	1447.010376	59100.441406
0.000000	1448.329102	58929.648438
0.000000	1449.647827	59052.128906
0.000000	1450.966553	59114.449219
0.000000	1452.285278	59025.828125
0.000000	1453.604004	59133.023438
0.000000	1454.922729	59209.562500
0.000000	1456.241455	59033.976563
0.000000	1457.560181	59145.683594
0.000000	1458.878906	59074.242188
0.000000	1460.197632	59128.558594
0.000000	1461.516357	59463.757813
0.000000	1462.835083	58770.687500
0.000000	1464.153809	59368.671875
0.000000	1465.472534	59421.027344
0.000000	1466.791260	59013.976563
0.000000	1468.109985	59403.054688
0.000000	1469.428711	59267.343750
0.000000	1470.747437	59208.242188
0.000000	1472.066162	59379.644531
0.000000	1473.384888	59422.695313
0.000000	1474.703613	59519.882813
0.000000	1476.022339	59576.695313
0.000000	1477.341064	59443.269531
0.000000	1478.659790	59402.898438
0.000000	1479.978516	59554.085938
0.000000	1481.297241	59604.761719
0.000000	1482.615967	59562.523438
0.000000	1483.934692	59668.203125
0.000000	1485.253418	59753.140625
0.000000	1486.572144	59753.839844
0.000000	1487.890869	59439.234375
0.000000	1489.209595	59710.113281
0.000000	1490.528320	59790.417969
0.000000	1491.847046	59388.339844
0.000000	1493.165771	59747.050781
0.000000	1494.484497	59875.304688
0.000000	1495.803223	60077.886719
0.000000	1497.121948	59944.402344
0.000000	1498.440674	60075.984375
0.000000	1499.759399	60239.160156
0.000000	1501.078125	60189.406250
0.000000	1502.396851	60122.515625
0.000000	1503.715576	60276.023438
0.000000	1505.034302	60450.031250
0.000000	1506.353027	60398.917969
0.000000	1507.671753	60346.031250
0.000000	1508.990479	60198.257813
0.000000	1510.309204	60508.160156
0.000000	1511.627930	60624.183594
0.000000	1512.946655	60793.414063
0.000000	1514.265381	60527.445313
0.000000	1515.584106	60704.058594
0.000000	1516.902832	60955.292969
0.000000	1518.221558	61049.203125
0.000000	1519.540283	60881.609375
0.000000	1520.859009	61269.136719
0.000000	1522.177734	61201.394531
0.000000	1523.496460	61103.574219
0.000000	1524.815186	61199.199219
0.000000	1526.133911	61227.730469
0.000000	1527.452637	61435.859375
0.000000	1528.771362	61460.835938
0.000000	1530.090088	61442.683594
0.000000	1531.408813	61648.832031
0.000000	1532.727539	61779.406250
0.000000	1534.046265	61971.625000
0.000000	1535.364990	62039.171875
0.000000	1536.683716	61728.800781
0.000000	1538.002441	61777.945313
0.000000	1539.321167	62066.398438
0.000000	1540.639893	61949.003906
0.000000	1541.958618	61877.671875
0.000000	1543.277344	61796.484375
0.000000	1544.596069	61713.542969
0.000000	1545.914795	62053.472656
0.000000	1547.233521	62281.046875
0.000000	1548.552246	61813.984375
0.000000	1549.870972	62192.824219
0.000000	1551.189697	62227.386719
0.000000	1552.508423	62415.511719
0.000000	1553.827148	62107.738281
0.000000	1555.145874	62117.082031
0.000000	1556.464600	62204.238281
0.000000	1557.783325	62054.578125
0.000000	1559.102051	62080.562500
0.000000	1560.420776	62195.042969
0.000000	1561.739502	62306.082031
0.000000	1563.058228	62454.406250
0.000000	1564.376953	62389.316406
0.000000	1565.695679	62600.523438
0.000000	1567.014404	62814.687500
0.000000	1568.333130	62534.312500
0.000000	1569.651855	62470.625000
0.000000	1570.970581	62302.175781
0.000000	1572.289307	62279.531250
0.000000	1573.608032	62587.425781
0.000000	1574.926758	62850.835938
0.000000	1576.245483	62509.957031
0.000000	1577.564209	62801.957031
0.000000	1578.882935	62621.710938
0.000000	1580.201660	62294.316406
0.000000	1581.520386	62214.738281
0.000000	1582.839111	62671.609375
0.000000	1584.157837	62629.316406
0.000000	1585.476563	62637.187500
0.000000	1586.795288	62763.136719
0.000000	1588.114014	62467.683594
0.000000	1589.432739	62288.980469
0.000000	1590.751465	62563.175781
0.000000	1592.070190	62697.507813
0.000000	1593.388916	62660.933594
0.000000	1594.707642	62856.707031
0.000000	1596.026367	63014.335938
0.000000	1597.345093	63050.531250
0.000000	1598.663818	63319.480469
0.000000	1599.982544	63259.019531
0.000000	1601.301270	62765.652344
0.000000	1602.619995	63177.507813
0.000000	1603.938721	63099.027344
0.000000	1605.257446	63146.621094
0.000000	1606.576172	62637.066406
0.000000	1607.894897	63431.343750
0.000000	1609.213623	63350.671875
0.000000	1610.532349	63738.894531
0.000000	1611.851074	63771.609375
0.000000	1613.169800	63558.523438
0.000000	1614.488525	63622.128906
0.000000	1615.807251	63553.355469
0.000000	1617.125977	63702.332031
0.000000	1618.444702	63942.558594
0.000000	1619.763428	63638.089844
0.000000	1621.082153	63874.906250
0.000000	1622.400879	64197.300781
0.000000	1623.719604	64205.636719
0.000000	1625.038330	64503.742188
0.000000	1626.357056	64465.187500
0.000000	1627.675781	64279.035156
0.000000	1628.994507	64402.214844
0.000000	1630.313232	64581.222656
0.000000	1631.631958	64765.859375
0.000000	1632.950684	64506.925781
0.000000	1634.269409	64692.730469
0.000000	1635.588135	64878.757813
0.000000	1636.906860	64965.906250
0.000000	1638.225586	64991.230469
0.000000	1639.544312	65084.160156
0.000000	1640.863037	65037.722656
0.000000	1642.181763	65134.175781
0.000000	1643.500488	65398.207031
0.000000	1644.819214	65443.789063
0.000000	1646.137939	65509.953125
0.000000	1647.456665	65512.382813
0.000000	1648.775391	65435.839844
0.000000	1650.094116	65659.437500
0.000000	1651.412842	65497.589844
0.000000	1652.731567	65565.851563
0.000000	1654.050293	65666.367188
0.000000	1655.369019	65590.625000
0.000000	1656.687744	65947.351563
0.000000	1658.006470	65768.843750
0.000000	1659.325195	65951.093750
0.000000	1660.643921	66110.757813
0.000000	1661.962646	65818.296875
0.000000	1663.281372	65972.929688
0.000000	1664.600098	66253.453125
0.000000	1665.918823	65915.726563
0.000000	1667.237549	65883.054688
0.000000	1668.556274	66004.867188
0.000000	1669.875000	66009.007813
0.000000	1671.193726	66102.328125
0.000000	1672.512451	66057.570313
0.000000	1673.831177	66398.187500
0.000000	1675.149902	66431.218750
0.000000	1676.468628	66287.742188
0.000000	1677.787354	66565.281250
0.000000	1679.106079	66573.531250
0.000000	1680.424805	66521.328125
0.000000	1681.743530	65996.875000
0.000000	1683.062256	66204.609375
0.000000	1684.380981	66277.976563
0.000000	1685.699707	66429.195313
0.000000	1687.018433	66094.960938
0.000000	1688.337158	65993.406250
0.000000	1689.655884	65993.929688
0.000000	1690.974609	66190.117188
0.000000	1692.293335	66886.023438
0.000000	1693.612061	66373.085938
0.000000	1694.930786	66339.929688
0.000000	1696.249512	66640.867188
0.000000	1697.568237	66559.734375
0.000000	1698.886963	66670.367188
0.000000	1700.205688	66949.976563
0.000000	1701.524414	66326.335938
0.000000	1702.843140	66502.070313
0.000000	1704.161865	66431.164063
0.000000	1705.480591	66458.781250
0.000000	1706.799316	66436.703125
0.000000	1708.118042	66280.640625
0.000000	1709.436768	66337.671875
0.000000	1710.755493	66799.804688
0.000000	1712.074219	66932.085938
0.000000	1713.392944	66815.617188
0.000000	1714.711670	66837.429688
0.000000	1716.030396	66696.632813
0.000000	1717.349121	66704.921875
0.000000	1718.667847	66953.453125
0.000000	1719.986572	66882.273438
0.000000	1721.305298	66721.320313
0.000000	1722.624023	66794.046875
0.000000	1723.942749	67013.648438
0.000000	1725.261475	67385.703125
0.000000	1726.580200	67429.156250
0.000000	1727.898926	67095.515625
0.000000	1729.217651	67031.968750
0.000000	1730.536377	66966.804688
0.000000	1731.855103	67332.476563
0.000000	1733.173828	67422.507813
0.000000	1734.492554	67124.000000
0.000000	1735.811279	67193.375000
0.000000	1737.130005	67241.312500
0.000000	1738.448730	67719.945313
0.000000	1739.767456	67554.382813
0.000000	1741.086182	67725.460938
0.000000	1742.404907	67571.164063
0.000000	1743.723633	67739.789063
0.000000	1745.042358	67771.281250
0.000000	1746.361084	67743.156250
0.000000	1747.679810	67990.320313
0.000000	1748.998535	68279.351563
0.000000	1750.317261	67934.179688
0.000000	1751.635986	68042.851563
0.000000	1752.954712	68446.335938
0.000000	1754.273438	68333.992188
0.000000	1755.592163	68521.406250
0.000000	1756.910889	68290.093750
0.000000	1758.229614	68038.195313
0.000000	1759.548340	68120.914063
0.000000	1760.867065	68609.851563
0.000000	1762.185791	68858.843750
0.000000	1763.504517	68276.148438
0.000000	1764.823242	68360.976563
0.000000	1766.141968	68452.578125
0.000000	1767.460693	68847.898438
0.000000	1768.779419	68757.156250
0.000000	1770.098145	68616.429688
0.000000	1771.416870	68906.726563
0.000000	1772.735596	68924.179688
0.000000	1774.054321	68963.671875
0.000000	1775.373047	69229.539063
0.000000	1776.691772	69131.773438
0.000000	1778.010498	68996.492188
0.000000	1779.329224	68939.476563
0.000000	1780.647949	69108.390625
0.000000	1781.966675	68851.914063
0.000000	1783.285400	68943.828125
0.000000	1784.604126	69011.851563
0.000000	1785.922852	68857.171875
0.000000	1787.241577	69133.445313
0.000000	1788.560303	69066.210938
0.000000	1789.879028	68924.921875
0.000000	1791.197754	69061.531250
0.000000	1792.516479	69228.039063
0.000000	1793.835205	69097.515625
0.000000	1795.153931	68807.062500
0.000000	1796.472656	68929.226563
0.000000	1797.791382	68842.585938
0.000000	1799.110107	68985.000000
0.000000	1800.428833	69073.070313
0.000000	1801.747559	69085.531250
0.000000	1803.066284	68997.562500
0.000000	1804.385010	68838.515625
0.000000	1805.703735	69228.796875
0.000000	1807.022461	69275.578125
0.000000	1808.341187	69355.992188
0.000000	1809.659912	69278.210938
0.000000	1810.978638	69213.812500
0.000000	1812.297363	68984.468750
0.000000	1813.616089	68977.187500
0.000000	1814.934814	69022.734375
0.000000	1816.253540	68835.109375
0.000000	1817.572266	68841.671875
0.000000	1818.890991	69374.882813
0.000000	1820.209717	68935.875000
0.000000	1821.528442	69030.312500
0.000000	1822.847168	69303.632813
0.000000	1824.165894	69348.593750
0.000000	1825.484619	69367.515625
0.000000	1826.803345	69408.031250
0.000000	1828.122070	69266.257813
0.000000	1829.440796	69120.953125
0.000000	1830.759521	69473.507813
0.000000	1832.078247	69198.812500
0.000000	1833.396973	69345.398438
0.000000	1834.715698	69715.078125
0.000000	1836.034424	69803.195313
0.000000	1837.353149	69435.546875
0.000000	1838.671875	69675.929688
0.000000	1839.990601	69585.593750
0.000000	1841.309326	69016.609375
0.000000	1842.628052	69438.992188
0.000000	1843.946777	70419.070313
0.000000	1845.265503	69763.593750
0.000000	1846.584229	70081.039063
0.000000	1847.902954	69963.523438
0.000000	1849.221680	70050.304688
0.000000	1850.540405	70063.656250
0.000000	1851.859131	70307.046875
0.000000	1853.177856	70358.007813
0.000000	1854.496582	69877.078125
0.000000	1855.815308	70129.156250
0.000000	1857.134033	70061.632813
0.000000	1858.452759	70397.046875
0.000000	1859.771484	70467.320313
0.000000	1861.090210	70655.609375
0.000000	1862.408936	70558.132813
0.000000	1863.727661	70406.289063
0.000000	1865.046387	70728.320313
0.000000	1866.365112	71042.289063
0.000000	1867.683838	70667.500000
0.000000	1869.002563	70330.609375
0.000000	1870.321289	70738.617188
0.000000	1871.640015	70531.820313
0.000000	1872.958740	70636.945313
0.000000	1874.277466	71009.171875
0.000000	1875.596191	71040.625000
0.000000	1876.914917	71116.203125
0.000000	1878.233643	70654.000000
0.000000	1879.552368	71036.875000
0.000000	1880.871094	71444.703125
0.000000	1882.189819	71326.914063
0.000000	1883.508545	71396.171875
0.000000	1884.827271	71529.492188
0.000000	1886.145996	71363.765625
0.000000	1887.464722	71462.351563
0.000000	1888.783447	71598.515625
0.000000	1890.102173	71418.296875
0.000000	1891.420898	71325.437500
0.000000	1892.739624	71998.921875
0.000000	1894.058350	71264.906250
0.000000	1895.377075	71429.718750
0.000000	1896.695801	71557.250000
0.000000	1898.014526	71464.039063
0.000000	1899.333252	71573.304688
0.000000	1900.651978	71429.171875
0.000000	1901.970703	71422.640625
0.000000	1903.289429	71691.812500
0.000000	1904.608154	71543.539063
0.000000	1905.926880	71394.765625
0.000000	1907.245605	71521.562500
0.000000	1908.564331	71742.781250
0.000000	1909.883057	71703.921875
0.000000	1911.201782	71547.398438
0.000000	1912.520508	72100.617188
0.000000	1913.839233	71257.070313
0.000000	1915.157959	71508.695313
0.000000	1916.476685	71676.898438
0.000000	1917.795410	71597.562500
0.000000	1919.114136	71542.382813
0.000000	1920.432861	71316.164063
0.000000	1921.751587	71441.914063
0.000000	1923.070313	71355.218750
0.000000	1924.389038	71059.406250
0.000000	1925.707764	71374.648438
0.000000	1927.026489	71875.179688
0.000000	1928.345215	71233.578125
0.000000	1929.663940	71460.828125
0.000000	1930.982666	70562.632813
0.000000	1932.301392	70876.625000
0.000000	1933.620117	71590.601563
0.000000	1934.938843	71262.359375
0.000000	1936.257568	71154.789063
0.000000	1937.576294	71476.140625
0.000000	1938.895020	71446.664063
0.000000	1940.213745	71162.289063
0.000000	1941.532471	72033.773438
0.000000	1942.851196	71956.156250
0.000000	1944.169922	71192.476563
0.000000	1945.488647	71560.195313
0.000000	1946.807373	71567.945313
0.000000	1948.126099	70897.039063
0.000000	1949.444824	71158.601563
0.000000	1950.763550	71470.710938
0.000000	1952.082275	71720.304688
0.000000	1953.401001	71556.960938
0.000000	1954.719727	71799.890625
0.000000	1956.038452	71655.382813
0.000000	1957.357178	71746.460938
0.000000	1958.675903	71615.375000
0.000000	1959.994629	71609.203125
0.000000	1961.313354	71743.632813
0.000000	1962.632080	71754.992188
0.000000	1963.950806	71706.515625
0.000000	1965.269531	71863.476563
0.000000	1966.588257	71835.828125
0.000000	1967.906982	71671.921875
0.000000	1969.225708	71916.078125
0.000000	1970.544434	72236.648438
0.000000	1971.863159	71830.960938
0.000000	1973.181885	72227.484375
0.000000	1974.500610	71914.304688
0.000000	1975.819336	71976.718750
0.000000	1977.138062	72198.882813
0.000000	1978.456787	71992.921875
0.000000	1979.775513	72126.054688
0.000000	1981.094238	72549.132813
0.000000	1982.412964	72425.789063
0.000000	1983.731689	72310.500000
0.000000	1985.050415	72563.742188
0.000000	1986.369141	72577.242188
0.000000	1987.687866	72319.992188
0.000000	1989.006592	72210.703125
0.000000	1990.325317	72723.859375
0.000000	1991.644043	72503.078125
0.000000	1992.962769	72488.054688
0.000000	1994.281494	72839.085938
0.000000	1995.600220	73279.812500
0.000000	1996.918945	72939.093750
0.000000	1998.237671	72884.195313
0.000000	1999.556396	72926.875000
0.000000	2000.875122	72821.234375
0.000000	2002.193848	73077.320313
0.000000	2003.512573	73505.070313
0.000000	2004.831299	73378.796875
0.000000	2006.150024	73164.781250
0.000000	2007.468750	73065.921875
0.000000	2008.787476	73055.218750
0.000000	2010.106201	73121.992188
0.000000	2011.424927	73145.953125
0.000000	2012.743652	73082.382813
0.000000	2014.062378	73319.492188
0.000000	2015.381104	73161.812500
0.000000	2016.699829	73337.015625
0.000000	2018.018555	73417.656250
0.000000	2019.337280	73511.421875
0.000000	2020.656006	73613.359375
0.000000	2021.974731	73556.304688
0.000000	2023.293457	73433.570313
0.000000	2024.612183	73463.320313
0.000000	2025.930908	73497.796875
0.000000	2027.249634	73372.554688
0.000000	2028.568359	73250.109375
0.000000	2029.887085	73493.609375
0.000000	2031.205811	73274.000000
0.000000	2032.524536	73344.070313
0.000000	2033.843262	73567.085938
0.000000	2035.161987	73370.109375
0.000000	2036.480713	73300.257813
0.000000	2037.799438	73456.414063
0.000000	2039.118164	73154.851563
0.000000	2040.436890	73038.750000
0.000000	2041.755615	73386.117188
0.000000	2043.074341	73216.890625
0.000000	2044.393066	72917.445313
0.000000	2045.711792	73419.226563
0.000000	2047.030518	73954.210938
0.000000	2048.349121	73284.789063
0.000000	2049.667725	73467.046875
0.000000	2050.986328	72948.992188
0.000000	2052.304932	73502.523438
0.000000	2053.623535	72910.734375
0.000000	2054.942139	73146.726563
0.000000	2056.260742	73090.351563
0.000000	2057.579346	73605.742188
0.000000	2058.897949	73417.406250
0.000000	2060.216553	73153.546875
0.000000	2061.535156	73324.375000
0.000000	2062.853760	73542.914063
0.000000	2064.172363	73487.710938
0.000000	2065.490967	73258.164063
0.000000	2066.809570	73500.351563
0.000000	2068.128174	73823.382813
0.000000	2069.446777	73444.765625
0.000000	2070.765381	73321.093750
0.000000	2072.083984	73446.750000
0.000000	2073.402588	73651.625000
0.000000	2074.721191	73522.851563
0.000000	2076.039795	73496.500000
0.000000	2077.358398	73649.515625
0.000000	2078.677002	73666.562500
0.000000	2079.995605	73650.523438
0.000000	2081.314209	73755.015625
0.000000	2082.632813	73630.289063
0.000000	2083.951416	73826.031250
0.000000	2085.270020	73569.851563
0.000000	2086.588623	73936.968750
0.000000	2087.907227	74435.898438
0.000000	2089.225830	74200.828125
0.000000	2090.544434	74285.687500
0.000000	2091.863037	74108.914063
0.000000	2093.181641	73864.765625
0.000000	2094.500244	74089.992188
0.000000	2095.818848	74095.359375
0.000000	2097.137451	74510.539063
0.000000	2098.456055	73964.289063
0.000000	2099.774658	73849.171875
0.000000	2101.093262	74323.742188
0.000000	2102.411865	73942.968750
0.000000	2103.730469	74399.640625
0.000000	2105.049072	74049.539063
0.000000	2106.367676	74663.804688
0.000000	2107.686279	74570.125000
0.000000	2109.004883	74497.617188
0.000000	2110.323486	74492.492188
0.000000	2111.642090	74520.054688
0.000000	2112.960693	74712.203125
0.000000	2114.279297	74381.554688
0.000000	2115.597900	74636.835938
0.000000	2116.916504	74862.250000
0.000000	2118.235107	74744.664063
0.000000	2119.553711	74611.070313
0.000000	2120.872314	74609.523438
0.000000	2122.190918	74712.234375
0.000000	2123.509521	74622.398438
0.000000	2124.828125	74734.898438
0.000000	2126.146729	74950.312500
0.000000	2127.465332	74862.828125
0.000000	2128.783936	74795.757813
0.000000	2130.102539	74971.179688
0.000000	2131.421143	74665.742188
0.000000	2132.739746	74881.359375
0.000000	2134.058350	75393.312500
0.000000	2135.376953	74950.359375
0.000000	2136.695557	75296.875000
0.000000	2138.014160	75042.125000
0.000000	2139.332764	74895.859375
0.000000	2140.651367	74969.757813
0.000000	2141.969971	74940.000000
0.000000	2143.288574	75254.429688
0.000000	2144.607178	74787.507813
0.000000	2145.925781	74725.062500
0.000000	2147.244385	74845.718750
0.000000	2148.562988	75044.523438
0.000000	2149.881592	75339.726563
0.000000	2151.200195	75359.039063
0.000000	2152.518799	75348.390625
0.000000	2153.837402	74944.953125
0.000000	2155.156006	75156.898438
0.000000	2156.474609	75174.531250
0.000000	2157.793213	74897.429688
0.000000	2159.111816	74655.171875
0.000000	2160.430420	74970.539063
0.000000	2161.749023	75283.101563
0.000000	2163.067627	75109.695313
0.000000	2164.386230	74870.742188
0.000000	2165.704834	74973.781250
0.000000	2167.023438	75009.445313
0.000000	2168.342041	74975.320313
0.000000	2169.660645	75026.906250
0.000000	2170.979248	75246.195313
0.000000	2172.297852	74760.531250
0.000000	2173.616455	74965.546875
0.000000	2174.935059	74782.882813
0.000000	2176.253662	74679.851563
0.000000	2177.572266	74701.492188
0.000000	2178.890869	75055.132813
0.000000	2180.209473	75039.070313
0.000000	2181.528076	75257.156250
0.000000	2182.846680	74966.093750
0.000000	2184.165283	74721.750000
0.000000	2185.483887	74823.109375
0.000000	2186.802490	75142.203125
0.000000	2188.121094	75265.226563
0.000000	2189.439697	74835.593750
0.000000	2190.758301	74818.515625
0.000000	2192.076904	74777.156250
0.000000	2193.395508	74695.007813
0.000000	2194.714111	74607.320313
0.000000	2196.032715	75238.210938
0.000000	2197.351318	75306.687500
0.000000	2198.669922	75270.070313
0.000000	2199.988525	75248.351563
0.000000	2201.307129	75173.140625
0.000000	2202.625732	75224.992188
0.000000	2203.944336	75184.648438
0.000000	2205.262939	75657.531250
0.000000	2206.581543	75225.757813
0.000000	2207.900146	75275.562500
0.000000	2209.218750	74937.531250
0.000000	2210.537354	75063.195313
0.000000	2211.855957	75116.343750
0.000000	2213.174561	75186.171875
0.000000	2214.493164	75196.492188
0.000000	2215.811768	74908.546875
0.000000	2217.130371	75081.015625
0.000000	2218.448975	75401.203125
0.000000	2219.767578	75264.921875
0.000000	2221.086182	75239.828125
0.000000	2222.404785	75506.125000
0.000000	2223.723389	75550.343750
0.000000	2225.041992	75465.398438
0.000000	2226.360596	75377.812500
0.000000	2227.679199	75518.789063
0.000000	2228.997803	75275.195313
0.000000	2230.316406	75358.367188
0.000000	2231.635010	75684.812500
0.000000	2232.953613	75608.148438
0.000000	2234.272217	75789.015625
0.000000	2235.590820	75307.476563
0.000000	2236.909424	75625.398438
0.000000	2238.228027	75659.531250
0.000000	2239.546631	75861.421875
0.000000	2240.865234	75497.218750
0.000000	2242.183838	75882.117188
0.000000	2243.502441	76142.781250
0.000000	2244.821045	75982.140625
0.000000	2246.139648	76027.195313
0.000000	2247.458252	75601.781250
0.000000	2248.776855	75359.445313
0.000000	2250.095459	75360.250000
0.000000	2251.414063	75286.375000
0.000000	2252.732666	75603.070313
0.000000	2254.051270	75720.625000
0.000000	2255.369873	75389.328125
0.000000	2256.688477	75355.593750
0.000000	2258.007080	75687.023438
0.000000	2259.325684	75658.750000
0.000000	2260.644287	75968.890625
0.000000	2261.962891	75573.718750
0.000000	2263.281494	75589.257813
0.000000	2264.600098	75618.710938
0.000000	2265.918701	75636.546875
0.000000	2267.237305	75540.054688
0.000000	2268.555908	75494.835938
0.000000	2269.874512	75456.484375
0.000000	2271.193115	75195.265625
0.000000	2272.511719	75481.578125
0.000000	2273.830322	75580.148438
0.000000	2275.148926	75662.148438
0.000000	2276.467529	75499.398438
0.000000	2277.786133	75608.601563
0.000000	2279.104736	75714.921875
0.000000	2280.423340	75395.296875
0.000000	2281.741943	74960.937500
0.000000	2283.060547	74995.960938
0.000000	2284.379150	75139.640625
0.000000	2285.697754	75315.796875
0.000000	2287.016357	75471.781250
0.000000	2288.334961	75484.937500
0.000000	2289.653564	75061.679688
0.000000	2290.972168	75266.429688
0.000000	2292.290771	75140.664063
0.000000	2293.609375	75086.898438
0.000000	2294.927979	75336.781250
0.000000	2296.246582	75397.851563
0.000000	2297.565186	75208.593750
0.000000	2298.883789	75338.304688
0.000000	2300.202393	75035.984375
0.000000	2301.520996	74853.148438
0.000000	2302.839600	74971.179688
0.000000	2304.158203	75179.734375
0.000000	2305.476807	75171.953125
0.000000	2306.795410	75127.320313
0.000000	2308.114014	75263.507813
0.000000	2309.432617	75204.164063
0.000000	2310.751221	75136.507813
0.000000	2312.069824	75108.632813
0.000000	2313.388428	75495.921875
0.000000	2314.707031	75594.414063
0.000000	2316.025635	75170.359375
0.000000	2317.344238	75225.140625
0.000000	2318.662842	75271.132813
0.000000	2319.981445	75367.968750
0.000000	2321.300049	75296.218750
0.000000	2322.618652	74862.289063
0.000000	2323.937256	75118.335938
0.000000	2325.255859	75201.867188
0.000000	2326.574463	75416.328125
0.000000	2327.893066	75823.648438
0.000000	2329.211670	75768.859375
0.000000	2330.530273	75427.367188
0.000000	2331.848877	75543.984375
0.000000	2333.167480	74957.906250
0.000000	2334.486084	75505.890625
0.000000	2335.804688	75791.976563
0.000000	2337.123291	75618.140625
0.000000	2338.441895	75268.796875
0.000000	2339.760498	75589.289063
0.000000	2341.079102	75443.843750
0.000000	2342.397705	75126.554688
0.000000	2343.716309	75742.062500
0.000000	2345.034912	75634.304688
0.000000	2346.353516	75804.875000
0.000000	2347.672119	75895.960938
0.000000	2348.990723	75837.796875
0.000000	2350.309326	76098.906250
0.000000	2351.627930	75899.484375
0.000000	2352.946533	75947.765625
0.000000	2354.265137	75784.421875
0.000000	2355.583740	76136.421875
0.000000	2356.902344	76017.500000
0.000000	2358.220947	75964.796875
0.000000	2359.539551	76291.828125
0.000000	2360.858154	76065.156250
0.000000	2362.176758	75833.859375
0.000000	2363.495361	75527.820313
0.000000	2364.813965	75951.796875
0.000000	2366.132568	75702.703125
0.000000	2367.451172	75638.898438
0.000000	2368.769775	75833.546875
0.000000	2370.088379	75982.570313
0.000000	2371.406982	76153.843750
0.000000	2372.725586	76037.179688
0.000000	2374.044189	76272.945313
0.000000	2375.362793	76088.734375
0.000000	2376.681396	75989.023438
0.000000	2378.000000	76042.960938
0.000000	2379.318604	75607.625000
0.000000	2380.637207	75943.882813
0.000000	2381.955811	75424.695313
0.000000	2383.274414	76044.039063
0.000000	2384.593018	75837.507813
0.000000	2385.911621	75638.039063
0.000000	2387.230225	75646.296875
0.000000	2388.548828	75686.421875
0.000000	2389.867432	75499.406250
0.000000	2391.186035	75615.734375
0.000000	2392.504639	75548.265625
0.000000	2393.823242	75561.757813
0.000000	2395.141846	75754.851563
0.000000	2396.460449	75776.375000
0.000000	2397.779053	75433.484375
0.000000	2399.097656	75979.234375
0.000000	2400.416260	75066.398438
0.000000	2401.734863	75625.320313
0.000000	2403.053467	75148.820313
0.000000	2404.372070	75481.664063
0.000000	2405.690674	75263.687500
0.000000	2407.009277	75262.132813
0.000000	2408.327881	75591.703125
0.000000	2409.646484	75350.828125
0.000000	2410.965088	75073.625000
0.000000	2412.283691	75477.039063
0.000000	2413.602295	75681.625000
0.000000	2414.920898	75275.515625
0.000000	2416.239502	75489.148438
0.000000	2417.558105	75423.843750
0.000000	2418.876709	75514.882813
0.000000	2420.195313	75071.710938
0.000000	2421.513916	75424.929688
0.000000	2422.832520	74936.343750
0.000000	2424.151123	75108.484375
0.000000	2425.469727	75394.984375
0.000000	2426.788330	75160.187500
0.000000	2428.106934	74969.609375
0.000000	2429.425537	75169.140625
0.000000	2430.744141	75206.710938
0.000000	2432.062744	75586.140625
0.000000	2433.381348	75213.546875
0.000000	2434.699951	75550.164063
0.000000	2436.018555	75475.445313
0.000000	2437.337158	75158.585938
0.000000	2438.655762	75059.179688
0.000000	2439.974365	75359.710938
0.000000	2441.292969	75014.015625
0.000000	2442.611572	75005.445313
0.000000	2443.930176	74845.960938
0.000000	2445.248779	74906.132813
0.000000	2446.567383	75280.867188
0.000000	2447.885986	75031.382813
0.000000	2449.204590	75277.234375
0.000000	2450.523193	75370.984375
0.000000	2451.841797	75037.000000
0.000000	2453.160400	75213.781250
0.000000	2454.479004	75416.453125
0.000000	2455.797607	75146.953125
0.000000	2457.116211	75183.648438
0.000000	2458.434814	75506.812500
0.000000	2459.753418	75308.250000
0.000000	2461.072021	75362.273438
0.000000	2462.390625	75291.093750
0.000000	2463.709229	74910.468750
0.000000	2465.027832	75041.164063
0.000000	2466.346436	75293.726563
0.000000	2467.665039	75169.765625
0.000000	2468.983643	75399.289063
0.000000	2470.302246	75420.898438
0.000000	2471.620850	75849.218750
0.000000	2472.939453	75247.976563
0.000000	2474.258057	75198.820313
0.000000	2475.576660	75255.250000
0.000000	2476.895264	75379.921875
0.000000	2478.213867	75141.343750
0.000000	2479.532471	75238.453125
0.000000	2480.851074	75075.421875
0.000000	2482.169678	75113.476563
0.000000	2483.488281	75283.539063
0.000000	2484.806885	75999.187500
0.000000	2486.125488	75271.781250
0.000000	2487.444092	75114.203125
0.000000	2488.762695	75137.820313
0.000000	2490.081299	75202.789063
0.000000	2491.399902	75482.539063
0.000000	2492.718506	75411.359375
0.000000	2494.037109	75177.898438
0.000000	2495.355713	75296.781250
0.000000	2496.674316	75349.000000
0.000000	2497.992920	75275.187500
0.000000	2499.311523	74906.851563
0.000000	2500.630127	75146.882813
0.000000	2501.948730	74959.664063
0.000000	2503.267334	75400.757813
0.000000	2504.585938	75327.078125
0.000000	2505.904541	74965.625000
0.000000	2507.223145	75227.343750
0.000000	2508.541748	75018.937500
0.000000	2509.860352	74950.570313
0.000000	2511.178955	75369.382813
0.000000	2512.497559	74798.015625
0.000000	2513.816162	74615.460938
0.000000	2515.134766	74912.359375
0.000000	2516.453369	74552.562500
0.000000	2517.771973	74849.390625
0.000000	2519.090576	75122.437500
0.000000	2520.409180	74777.578125
0.000000	2521.727783	74882.312500
0.000000	2523.046387	75001.453125
0.000000	2524.364990	74608.429688
0.000000	2525.683594	74545.742188
0.000000	2527.002197	74654.554688
0.000000	2528.320801	74543.125000
0.000000	2529.639404	74677.945313
0.000000	2530.958008	74603.250000
0.000000	2532.276611	74604.898438
0.000000	2533.595215	74560.289063
0.000000	2534.913818	74261.085938
0.000000	2536.232422	74146.984375
0.000000	2537.551025	74407.250000
0.000000	2538.869629	74717.382813
0.000000	2540.188232	74233.734375
0.000000	2541.506836	73912.382813
0.000000	2542.825439	74305.703125
0.000000	2544.144043	74290.515625
0.000000	2545.462646	74440.726563
0.000000	2546.781250	73926.453125
0.000000	2548.099854	74432.210938
0.000000	2549.418457	74146.046875
0.000000	2550.737061	74055.242188
0.000000	2552.055664	74013.781250
0.000000	2553.374268	74133.234375
0.000000	2554.692871	74048.609375
0.000000	2556.011475	74119.179688
0.000000	2557.330078	74208.179688
0.000000	2558.648682	74285.554688
0.000000	2559.967285	74316.617188
0.000000	2561.285889	74308.289063
0.000000	2562.604492	74232.710938
0.000000	2563.923096	74003.476563
0.000000	2565.241699	73804.671875
0.000000	2566.560303	73622.718750
0.000000	2567.878906	73854.703125
0.000000	2569.197510	74205.968750
0.000000	2570.516113	74457.578125
0.000000	2571.834717	73928.468750
0.000000	2573.153320	73797.398438
0.000000	2574.471924	74134.804688
0.000000	2575.790527	74148.257813
0.000000	2577.109131	74191.718750
0.000000	2578.427734	74374.140625
0.000000	2579.746338	74308.937500
0.000000	2581.064941	73871.789063
0.000000	2582.383545	73800.609375
0.000000	2583.702148	73916.125000
0.000000	2585.020752	74255.101563
0.000000	2586.339355	74047.773438
0.000000	2587.657959	74084.320313
0.000000	2588.976563	73489.414063
0.000000	2590.295166	74198.234375
0.000000	2591.613770	73971.492188
0.000000	2592.932373	74117.796875
0.000000	2594.250977	74514.312500
0.000000	2595.569580	74223.906250
0.000000	2596.888184	73864.062500
0.000000	2598.206787	74205.687500
0.000000	2599.525391	74316.671875
0.000000	2600.843994	73801.625000
0.000000	2602.162598	73950.117188
0.000000	2603.481201	73979.054688
0.000000	2604.799805	73823.328125
0.000000	2606.118408	74073.078125
0.000000	2607.437012	74254.390625
0.000000	2608.755615	74095.437500
0.000000	2610.074219	74151.070313
0.000000	2611.392822	74256.859375
0.000000	2612.711426	73381.992188
0.000000	2614.030029	73925.609375
0.000000	2615.348633	74323.859375
0.000000	2616.667236	73802.000000
0.000000	2617.985840	73990.820313
0.000000	2619.304443	74111.812500
0.000000	2620.623047	74305.210938
0.000000	2621.941650	74030.750000
0.000000	2623.260254	74184.476563
0.000000	2624.578857	74284.851563
0.000000	2625.897461	74206.812500
0.000000	2627.216064	74094.507813
0.000000	2628.534668	74460.882813
0.000000	2629.853271	74090.632813
0.000000	2631.171875	73909.984375
0.000000	2632.490479	74400.054688
0.000000	2633.809082	74265.296875
0.000000	2635.127686	74112.703125
0.000000	2636.446289	74237.250000
0.000000	2637.764893	74138.515625
0.000000	2639.083496	74439.875000
0.000000	2640.402100	73688.445313
0.000000	2641.720703	74061.687500
0.000000	2643.039307	74127.328125
0.000000	2644.357910	74190.242188
0.000000	2645.676514	74304.554688
0.000000	2646.995117	74376.164063
0.000000	2648.313721	74355.781250
0.000000	2649.632324	74582.125000
0.000000	2650.950928	74213.164063
0.000000	2652.269531	73997.289063
0.000000	2653.588135	73953.812500
0.000000	2654.906738	74151.382813
0.000000	2656.225342	74342.445313
0.000000	2657.543945	73931.296875
0.000000	2658.862549	74159.093750
0.000000	2660.181152	73754.890625
0.000000	2661.499756	73852.453125
0.000000	2662.818359	74145.796875
0.000000	2664.136963	73982.976563
0.000000	2665.455566	74028.218750
0.000000	2666.774170	73661.148438
0.000000	2668.092773	73661.843750
0.000000	2669.411377	73639.476563
0.000000	2670.729980	73790.953125
0.000000	2672.048584	73579.781250
0.000000	2673.367188	73698.218750
0.000000	2674.685791	73518.085938
0.000000	2676.004395	73812.179688
0.000000	2677.322998	73993.296875
0.000000	2678.641602	73808.875000
0.000000	2679.960205	73984.328125
0.000000	2681.278809	73574.250000
0.000000	2682.597412	73744.484375
0.000000	2683.916016	73518.445313
0.000000	2685.234619	73561.140625
0.000000	2686.553223	73428.859375
0.000000	2687.871826	73891.156250
0.000000	2689.190430	73761.804688
0.000000	2690.509033	73897.070313
0.000000	2691.827637	73286.375000
0.000000	2693.146240	73407.828125
0.000000	2694.464844	73469.945313
0.000000	2695.783447	73857.179688
0.000000	2697.102051	73758.257813
0.000000	2698.420654	73388.351563
0.000000	2699.739258	73387.445313
0.000000	2701.057861	73891.039063
0.000000	2702.376465	73452.468750
0.000000	2703.695068	73354.273438
0.000000	2705.013672	73264.203125
0.000000	2706.332275	73293.898438
0.000000	2707.650879	73363.023438
0.000000	2708.969482	73491.539063
0.000000	2710.288086	73636.046875
0.000000	2711.606689	73617.007813
0.000000	2712.925293	73188.484375
0.000000	2714.243896	73241.882813
0.000000	2715.562500	73308.500000
0.000000	2716.881104	73414.921875
0.000000	2718.199707	73285.703125
0.000000	2719.518311	73023.898438
0.000000	2720.836914	73376.460938
0.000000	2722.155518	73151.507813
0.000000	2723.474121	73506.820313
0.000000	2724.792725	73240.804688
0.000000	2726.111328	73306.945313
0.000000	2727.429932	73270.109375
0.000000	2728.748535	73312.273438
0.000000	2730.067139	73344.578125
0.000000	2731.385742	73192.210938
0.000000	2732.704346	72705.351563
0.000000	2734.022949	73033.968750
0.000000	2735.341553	73184.468750
0.000000	2736.660156	73109.140625
0.000000	2737.978760	72945.187500
0.000000	2739.297363	72918.132813
0.000000	2740.615967	73332.226563
0.000000	2741.934570	72997.609375
0.000000	2743.253174	73097.046875
0.000000	2744.571777	72951.937500
0.000000	2745.890381	72851.781250
0.000000	2747.208984	72854.078125
0.000000	2748.527588	72922.648438
0.000000	2749.846191	72710.070313
0.000000	2751.164795	73056.882813
0.000000	2752.483398	72874.179688
0.000000	2753.802002	72707.742188
0.000000	2755.120605	72801.117188
0.000000	2756.439209	72705.890625
0.000000	2757.757813	72639.906250
0.000000	2759.076416	72607.632813
0.000000	2760.395020	72746.640625
0.000000	2761.713623	72652.000000
0.000000	2763.032227	72858.796875
0.000000	2764.350830	72651.335938
0.000000	2765.669434	72462.875000
0.000000	2766.988037	72462.117188
0.000000	2768.306641	72478.429688
0.000000	2769.625244	72369.085938
0.000000	2770.943848	72459.359375
0.000000	2772.262451	72304.734375
0.000000	2773.581055	72345.429688
0.000000	2774.899658	72046.726563
0.000000	2776.218262	72186.500000
0.000000	2777.536865	72260.890625
0.000000	2778.855469	71993.273438
0.000000	2780.174072	72171.851563
0.000000	2781.492676	72287.562500
0.000000	2782.811279	72513.781250
0.000000	2784.129883	72237.015625
0.000000	2785.448486	72670.289063
0.000000	2786.767090	72165.320313
0.000000	2788.085693	72138.101563
0.000000	2789.404297	72260.539063
0.000000	2790.722900	72092.718750
0.000000	2792.041504	72025.750000
0.000000	2793.360107	72192.921875
0.000000	2794.678711	72214.796875
0.000000	2795.997314	71962.164063
0.000000	2797.315918	72027.578125
0.000000	2798.634521	72014.789063
0.000000	2799.953125	72026.601563
0.000000	2801.271729	72039.656250
0.000000	2802.590332	71904.078125
0.000000	2803.908936	72019.148438
0.000000	2805.227539	71668.132813
0.000000	2806.546143	72153.273438
0.000000	2807.864746	72194.976563
0.000000	2809.183350	71861.406250
0.000000	2810.501953	71795.890625
0.000000	2811.820557	71761.335938
0.000000	2813.139160	71878.000000
0.000000	2814.457764	72150.015625
0.000000	2815.776367	71838.351563
0.000000	2817.094971	71908.601563
0.000000	2818.413574	72372.875000
0.000000	2819.732178	71602.906250
0.000000	2821.050781	71752.335938
0.000000	2822.369385	71832.867188
0.000000	2823.687988	71849.265625
0.000000	2825.006592	71798.484375
0.000000	2826.325195	71935.429688
0.000000	2827.643799	71678.875000
0.000000	2828.962402	71557.585938
0.000000	2830.281006	71487.304688
0.000000	2831.599609	71824.343750
0.000000	2832.918213	71716.382813
0.000000	2834.236816	72039.187500
0.000000	2835.555420	71861.687500
0.000000	2836.874023	71919.054688
0.000000	2838.192627	72249.414063
0.000000	2839.511230	71818.226563
0.000000	2840.829834	71931.664063
0.000000	2842.148438	71554.718750
0.000000	2843.467041	71641.625000
0.000000	2844.785645	71895.148438
0.000000	2846.104248	71794.515625
0.000000	2847.422852	71289.164063
0.000000	2848.741455	71520.343750
0.000000	2850.060059	71535.640625
0.000000	2851.378662	71540.546875
0.000000	2852.697266	71667.867188
0.000000	2854.015869	71499.265625
0.000000	2855.334473	71792.546875
0.000000	2856.653076	71715.250000
0.000000	2857.971680	71290.820313
0.000000	2859.290283	71322.382813
0.000000	2860.608887	70875.429688
0.000000	2861.927490	71656.773438
0.000000	2863.246094	71250.015625
0.000000	2864.564697	71646.984375
0.000000	2865.883301	71206.554688
0.000000	2867.201904	71426.773438
0.000000	2868.520508	71495.867188
0.000000	2869.839111	71507.132813
0.000000	2871.157715	71133.796875
0.000000	2872.476318	71642.835938
0.000000	2873.794922	71015.226563
0.000000	2875.113525	71559.375000
0.000000	2876.432129	71465.718750
0.000000	2877.750732	71377.250000
0.000000	2879.069336	71032.179688
0.000000	2880.387939	71381.085938
0.000000	2881.706543	71271.625000
0.000000	2883.025146	71348.476563
0.000000	2884.343750	71176.531250
0.000000	2885.662354	70712.734375
0.000000	2886.980957	70630.226563
0.000000	2888.299561	71047.460938
0.000000	2889.618164	70544.890625
0.000000	2890.936768	70813.562500
0.000000	2892.255371	70626.265625
0.000000	2893.573975	70850.882813
0.000000	2894.892578	71047.523438
0.000000	2896.211182	70811.039063
0.000000	2897.529785	71031.546875
0.000000	2898.848389	70988.210938
0.000000	2900.166992	70331.812500
0.000000	2901.485596	70728.234375
0.000000	2902.804199	70672.320313
0.000000	2904.122803	70646.804688
0.000000	2905.441406	70555.843750
0.000000	2906.760010	70460.007813
0.000000	2908.078613	70367.390625
0.000000	2909.397217	70105.679688
0.000000	2910.715820	70331.875000
0.000000	2912.034424	70305.031250
0.000000	2913.353027	70013.320313
0.000000	2914.671631	69873.632813
0.000000	2915.990234	69802.875000
0.000000	2917.308838	70394.718750
0.000000	2918.627441	70149.148438
0.000000	2919.946045	69987.078125
0.000000	2921.264648	69949.218750
0.000000	2922.583252	70097.781250
0.000000	2923.901855	69751.890625
0.000000	2925.220459	70185.375000
0.000000	2926.539063	69955.117188
0.000000	2927.857666	69862.492188
0.000000	2929.176270	69878.101563
0.000000	2930.494873	69919.226563
0.000000	2931.813477	69934.617188
0.000000	2933.132080	70084.632813
0.000000	2934.450684	69955.789063
0.000000	2935.769287	69942.492188
0.000000	2937.087891	70047.445313
0.000000	2938.406494	70058.226563
0.000000	2939.725098	69720.828125
0.000000	2941.043701	69746.921875
0.000000	2942.362305	69657.203125
0.000000	2943.680908	69795.585938
0.000000	2944.999512	70053.500000
0.000000	2946.318115	70130.445313
0.000000	2947.636719	70023.953125
0.000000	2948.955322	69990.437500
0.000000	2950.273926	70382.718750
0.000000	2951.592529	69782.570313
0.000000	2952.911133	69945.882813
0.000000	2954.229736	69768.468750
0.000000	2955.548340	69560.726563
0.000000	2956.866943	69743.203125
0.000000	2958.185547	70236.226563
0.000000	2959.504150	69814.773438
0.000000	2960.822754	69698.156250
0.000000	2962.141357	69585.812500
0.000000	2963.459961	69703.593750
0.000000	2964.778564	69965.328125
0.000000	2966.097168	69903.070313
0.000000	2967.415771	69627.398438
0.000000	2968.734375	69696.976563
0.000000	2970.052979	69779.953125
0.000000	2971.371582	69703.828125
0.000000	2972.690186	69338.945313
0.000000	2974.008789	69597.382813
0.000000	2975.327393	69407.250000
0.000000	2976.645996	69557.031250
0.000000	2977.964600	69769.054688
0.000000	2979.283203	69569.328125
0.000000	2980.601807	69673.468750
0.000000	2981.920410	69323.078125
0.000000	2983.239014	69179.992188
0.000000	2984.557617	69748.820313
0.000000	2985.876221	70069.601563
0.000000	2987.194824	69823.742188
0.000000	2988.513428	69774.929688
0.000000	2989.832031	69581.679688
0.000000	2991.150635	69285.554688
0.000000	2992.469238	69578.468750
0.000000	2993.787842	69301.703125
0.000000	2995.106445	69517.195313
0.000000	2996.425049	69366.703125
0.000000	2997.743652	69442.726563
0.000000	2999.062256	69275.734375
0.000000	3000.380859	69235.187500
