Unnamed: 1	#Wave	Unnamed: 3	#Intensity
699.292969	2428.090332		
700.611694	2380.404053		
701.93042	2385.883057		
703.249146	2405.480713		
704.567871	2420.449219		
705.886597	2423.841797		
707.205322	2427.58374		
708.524048	2474.487061		
709.842773	2477.691895		
711.161499	2468.723633		
712.480225	2482.660645		
713.79895	2501.61499		
715.117676	2506.902344		
716.436401	2497.762695		
717.755127	2490.414307		
719.073853	2493.628662		
720.392578	2475.20459		
721.711304	2446.068604		
723.030029	2457.649902		
724.348755	2500.343994		
725.66748	2530.374512		
726.986206	2529.173096		
728.304932	2562.064941		
729.623657	2495.956787		
730.942383	2479.993652		
732.261108	2519.928955		
733.579834	2555.266602		
734.89856	2558.94873		
736.217285	2553.834229		
737.536011	2496.1875		
738.854736	2546.086914		
740.173462	2573.403564		
741.492188	2531.456543		
742.810913	2559.907227		
744.129639	2595.263672		
745.448364	2530.398926		
746.76709	2604.371826		
748.085815	2584.937256		
749.404541	2583.419434		
750.723267	2609.309326		
752.041992	2589.972168		
753.360718	2563.985596		
754.679443	2578.381348		
755.998169	2596.742188		
757.316895	2621.315674		
758.63562	2569.901611		
759.954346	2597.674561		
761.273071	2647.382813		
762.591797	2642.562988		
763.910522	2627.142334		
765.229248	2657.425781		
766.547974	2559.761963		
767.866699	2605.764648		
769.185425	2635.237793		
770.50415	2633.115967		
771.822876	2635.82251		
773.141602	2626.662354		
774.460327	2604.352051		
775.779053	2621.718262		
777.097778	2637.867676		
778.416504	2613.364502		
779.735229	2635.42334		
781.053955	2629.564453		
782.372681	2655.297852		
783.691406	2656.658447		
785.010132	2570.776855		
786.328857	2588.606201		
787.647583	2682.093994		
788.966309	2671.241455		
790.285034	2651.608887		
791.60376	2631.959961		
792.922485	2651.640137		
794.241211	2677.601563		
795.559937	2637.675293		
796.878662	2658.156006		
798.197388	2677.243896		
799.516113	2687.538574		
800.834839	2707.03418		
802.153564	2740.45752		
803.47229	2737.246826		
804.791016	2685.182861		
806.109741	2669.498047		
807.428467	2736.206299		
808.747192	2741.779053		
810.065918	2680.109619		
811.384644	2709.227051		
812.703369	2750.851318		
814.022095	2771.128418		
815.34082	2768.616211		
816.659546	2682.11499		
817.978271	2728.712402		
819.296997	2697.930176		
820.615723	2739.905273		
821.934448	2783.195801		
823.253174	2785.980957		
824.571899	2749.191895		
825.890625	2719.447021		
827.209351	2761.429688		
828.528076	2737.281982		
829.846802	2749.865479		
831.165527	2764.775635		
832.484253	2765.557373		
833.802979	2752.871582		
835.121704	2743.435303		
836.44043	2751.890869		
837.759155	2770.803467		
839.077881	2820.554932		
840.396606	2793.210938		
841.715332	2717.863525		
843.034058	2736.431641		
844.352783	2782.33374		
845.671509	2776.158691		
846.990234	2752.118408		
848.30896	2797.766357		
849.627686	2741.510986		
850.946411	2764.160156		
852.265137	2772.61377		
853.583862	2810.186035		
854.902588	2844.352295		
856.221313	2850.357666		
857.540039	2835.858887		
858.858765	2795.505615		
860.17749	2755.138428		
861.496216	2793.604736		
862.814941	2835.171875		
864.133667	2794.465332		
865.452393	2794.320801		
866.771118	2803.162109		
868.089844	2751.070313		
869.408569	2808.978516		
870.727295	2835.736084		
872.046021	2842.604004		
873.364746	2902.52124		
874.683472	2890.876953		
876.002197	2882.967773		
877.320923	2879.908203		
878.639648	2843.055664		
879.958374	2832.231445		
881.2771	2919.663574		
882.595825	2838.062988		
883.914551	2835.333008		
885.233276	2846.734619		
886.552002	2865.042236		
887.870728	2870.703369		
889.189453	2867.337402		
890.508179	2888.524658		
891.826904	2917.33374		
893.14563	2954.536133		
894.464355	2915.2146		
895.783081	2883.512207		
897.101807	2950.600098		
898.420532	2976.132324		
899.739258	2939.985107		
901.057983	2948.81665		
902.376709	2947.23291		
903.695435	2991.900879		
905.01416	2908.060791		
906.332886	2919.803955		
907.651611	2928.499512		
908.970337	2929.170166		
910.289063	2921.522949		
911.607788	2924.374023		
912.926514	2971.332275		
914.245239	2969.780273		
915.563965	2952.532227		
916.88269	2907.264648		
918.201416	2929.456299		
919.520142	2991.662354		
920.838867	3016.091797		
922.157593	2989.024658		
923.476318	2951.158691		
924.795044	2917.922852		
926.11377	3030.950684		
927.432495	2945.300781		
928.751221	2963.502686		
930.069946	3002.124023		
931.388672	3004.627197		
932.707397	2988.140869		
934.026123	2993.720215		
935.344849	3021.394775		
936.663574	3019.407715		
937.9823	3003.558594		
939.301025	3011.352295		
940.619751	2963.179688		
941.938477	3006.05542		
943.257202	2990.914795		
944.575928	2960.465576		
945.894653	2996.127441		
947.213379	2964.513916		
948.532104	3015.988281		
949.85083	2953.844971		
951.169556	2964.76416		
952.488281	2978.48999		
953.807007	2977.288818		
955.125732	3004.062012		
956.444458	3036.63208		
957.763184	3040.566895		
959.081909	3070.046875		
960.400635	3074.580078		
961.71936	2972.032715		
963.038086	3098.467285		
964.356812	3051.611572		
965.675537	3007.948242		
966.994263	3057.081055		
968.312988	3090.787109		
969.631714	3028.621338		
970.950439	3010.372803		
972.269165	3052.421143		
973.587891	3066.411377		
974.906616	3065.746582		
976.225342	3043.750244		
977.544067	3074.334473		
978.862793	3070.475098		
980.181519	3052.264648		
981.500244	3080.432617		
982.81897	3048.155762		
984.137695	3130.243652		
985.456421	3096.16626		
986.775146	3147.187256		
988.093872	3072.532227		
989.412598	3092.288086		
990.731323	3170.348389		
992.050049	3157.7146		
993.368774	3083.333496		
994.6875	3138.862061		
996.006226	3179.512207		
997.324951	3140.82373		
998.643677	3152.141602		
999.962402	3282.556885		
1001.281128	3207.522949		
1002.599854	3181.087646		
1003.918579	3218.855957		
1005.237305	3176.167969		
1006.55603	3147.212646		
1007.874756	3190.554199		
1009.193481	3186.535889		
1010.512207	3183.9646		
1011.830933	3192.875732		
1013.149658	3188.744385		
1014.468384	3178.662598		
1015.787109	3170.765869		
1017.105835	3178.942139		
1018.424561	3188.744629		
1019.743286	3144.99585		
1021.062012	3214.498047		
1022.380737	3181.656494		
1023.699463	3201.430176		
1025.018188	3213.687012		
1026.336914	3208.882324		
1027.65564	3212.763428		
1028.974365	3217.224854		
1030.293091	3228.442383		
1031.611816	3262.809814		
1032.930542	3163.013916		
1034.249268	3206.108887		
1035.567993	3265.173828		
1036.886719	3297.054932		
1038.205444	3271.820313		
1039.52417	3185.987061		
1040.842896	3199.460938		
1042.161621	3270.513184		
1043.480347	3241.786865		
1044.799072	3262.400879		
1046.117798	3223.310547		
1047.436523	3234.526855		
1048.755249	3266.739014		
1050.073975	3270.239502		
1051.3927	3297.688477		
1052.711426	3319.335693		
1054.030151	3299.266113		
1055.348877	3254.681885		
1056.667603	3224.879883		
1057.986328	3209.985107		
1059.305054	3260.007324		
1060.623779	3177.820068		
1061.942505	3283.464844		
1063.26123	3264.858154		
1064.579956	3268.295654		
1065.898682	3288.862305		
1067.217407	3283.546387		
1068.536133	3258.500244		
1069.854858	3254.327393		
1071.173584	3325.477051		
1072.49231	3359.612305		
1073.811035	3186.550293		
1075.129761	3345.815918		
1076.448486	3366.491699		
1077.767212	3351.706299		
1079.085938	3378.088867		
1080.404663	3394.363037		
1081.723389	3354.696533		
1083.042114	3309.908447		
1084.36084	3328.584961		
1085.679565	3410.791504		
1086.998291	3354.33374		
1088.317017	3354.827393		
1089.635742	3374.999268		
1090.954468	3355.425049		
1092.273193	3332.721924		
1093.591919	3323.899902		
1094.910645	3322.270264		
1096.22937	3354.230469		
1097.548096	3431.66748		
1098.866821	3361.577637		
1100.185547	3345.126221		
1101.504272	3347.348145		
1102.822998	3367.527588		
1104.141724	3376.900635		
1105.460449	3426.739014		
1106.779175	3459.608643		
1108.0979	3418.632324		
1109.416626	3357.057129		
1110.735352	3374.906494		
1112.054077	3491.124023		
1113.372803	3381.492188		
1114.691528	3472.788818		
1116.010254	3426.692383		
1117.328979	3374.338135		
1118.647705	3454.617432		
1119.966431	3483.356689		
1121.285156	3433.836914		
1122.603882	3442.958496		
1123.922607	3467.473389		
1125.241333	3354.418945		
1126.560059	3500.321533		
1127.878784	3483.76709		
1129.19751	3375.941895		
1130.516235	3440.240723		
1131.834961	3468.813232		
1133.153687	3432.586426		
1134.472412	3412.692627		
1135.791138	3450.288818		
1137.109863	3482.667969		
1138.428589	3432.664063		
1139.747314	3374.667725		
1141.06604	3410.919678		
1142.384766	3420.850342		
1143.703491	3408.11084		
1145.022217	3437.113525		
1146.340942	3466.868408		
1147.659668	3462.252197		
1148.978394	3435.412109		
1150.297119	3413.793213		
1151.615845	3431.30542		
1152.93457	3491.822021		
1154.253296	3468.429199		
1155.572021	3455.026123		
1156.890747	3499.526123		
1158.209473	3514.274414		
1159.528198	3485.443604		
1160.846924	3504.344238		
1162.165649	3535.887207		
1163.484375	3520.984131		
1164.803101	3482.263428		
1166.121826	3466.405518		
1167.440552	3476.077881		
1168.759277	3543.025391		
1170.078003	3479.829346		
1171.396729	3459.939453		
1172.715454	3555.82666		
1174.03418	3527.257324		
1175.352905	3527.846191		
1176.671631	3550.494873		
1177.990356	3532.892334		
1179.309082	3533.387207		
1180.627808	3576.127686		
1181.946533	3572.949707		
1183.265259	3581.124756		
1184.583984	3528.194336		
1185.90271	3566.720947		
1187.221436	3556.887939		
1188.540161	3529.856934		
1189.858887	3523.395752		
1191.177612	3536.700439		
1192.496338	3528.956299		
1193.815063	3539.115479		
1195.133789	3589.166016		
1196.452515	3611.272705		
1197.77124	3568.484619		
1199.089966	3537.46875		
1200.408691	3679.566406		
1201.727417	3596.208252		
1203.046143	3560.77417		
1204.364868	3600.299316		
1205.683594	3596.762451		
1207.002319	3582.106201		
1208.321045	3562.746826		
1209.639771	3549.17334		
1210.958496	3580.032715		
1212.277222	3629.692139		
1213.595947	3614.206787		
1214.914673	3649.61084		
1216.233398	3616.793701		
1217.552124	3647.385742		
1218.87085	3717.204834		
1220.189575	3643.237305		
1221.508301	3679.545898		
1222.827026	3602.505371		
1224.145752	3586.850586		
1225.464478	3658.633301		
1226.783203	3664.354004		
1228.101929	3636.828369		
1229.420654	3586.139893		
1230.73938	3633.336914		
1232.058105	3667.111816		
1233.376831	3603.750977		
1234.695557	3748.191406		
1236.014282	3692.518555		
1237.333008	3700.518555		
1238.651733	3656.111328		
1239.970459	3666.440186		
1241.289185	3704.539063		
1242.60791	3680.25708		
1243.926636	3683.513184		
1245.245361	3741.851074		
1246.564087	3736.864502		
1247.882813	3787.619141		
1249.201538	3634.213135		
1250.520264	3713.811279		
1251.838989	3751.949219		
1253.157715	3735.403564		
1254.47644	3707.690674		
1255.795166	3683.879883		
1257.113892	3699.463867		
1258.432617	3740.898926		
1259.751343	3744.259277		
1261.070068	3709.977295		
1262.388794	3701.349121		
1263.70752	3667.115723		
1265.026245	3734.448975		
1266.344971	3643.162842		
1267.663696	3691.519043		
1268.982422	3739.65332		
1270.301147	3734.416992		
1271.619873	3740.526367		
1272.938599	3776.603027		
1274.257324	3769.69873		
1275.57605	3744.137451		
1276.894775	3777.125		
1278.213501	3780.494873		
1279.532227	3672.863037		
1280.850952	3729.586426		
1282.169678	3763.739502		
1283.488403	3699.553223		
1284.807129	3795.293213		
1286.125854	3841.822754		
1287.44458	3826.06543		
1288.763306	3798.676025		
1290.082031	3730.872803		
1291.400757	3714.251953		
1292.719482	3780.333496		
1294.038208	3823.554443		
1295.356934	3803.091797		
1296.675659	3787.089355		
1297.994385	3830.803223		
1299.31311	3766.574951		
1300.631836	3757.444336		
1301.950562	3836.53125		
1303.269287	3873.315186		
1304.588013	3859.417725		
1305.906738	3844.449219		
1307.225464	3856.400146		
1308.544189	3858.874756		
1309.862915	3846.320801		
1311.181641	3796.285156		
1312.500366	3767.336426		
1313.819092	3885.975586		
1315.137817	3898.094971		
1316.456543	3838.075195		
1317.775269	3896.730957		
1319.093994	3859.79126		
1320.41272	3873.066162		
1321.731445	3863.54834		
1323.050171	3858.363525		
1324.368896	3876.334717		
1325.687622	3897.04834		
1327.006348	3854.023682		
1328.325073	3869.302002		
1329.643799	3928.955078		
1330.962524	3905.635986		
1332.28125	3930.334961		
1333.599976	3885.773926		
1334.918701	3907.23877		
1336.237427	3908.765869		
1337.556152	3958.625244		
1338.874878	3979.14502		
1340.193604	3909.477051		
1341.512329	3891.539795		
1342.831055	3923.666504		
1344.14978	3871.018066		
1345.468506	3917.176758		
1346.787231	4025.717041		
1348.105957	4008.29834		
1349.424683	3933.218018		
1350.743408	3949.533691		
1352.062134	3976.351318		
1353.380859	3921.291748		
1354.699585	3882.543945		
1356.018311	3898.028809		
1357.337036	3986.801025		
1358.655762	4010.105469		
1359.974487	3989.693848		
1361.293213	3908.801514		
1362.611938	3966.956055		
1363.930664	3938.863037		
1365.24939	3875.792236		
1366.568115	3891.136719		
1367.886841	3939.61084		
1369.205566	3941.11084		
1370.524292	3894.113281		
1371.843018	3934.206787		
1373.161743	3973.522705		
1374.480469	3929.78418		
1375.799194	3865.803223		
1377.11792	3932.01709		
1378.436646	3998.991211		
1379.755371	3929.773682		
1381.074097	3973.269043		
1382.392822	4007.105957		
1383.711548	3999.014404		
1385.030273	3993.506836		
1386.348999	4001.71167		
1387.667725	3997.593262		
1388.98645	3970.609863		
1390.305176	3967.106689		
1391.623901	4020.639893		
1392.942627	4021.832275		
1394.261353	3971.427979		
1395.580078	4061.562744		
1396.898804	4058.912354		
1398.217529	4072.45459		
1399.536255	4063.832031		
1400.85498	4045.846191		
1402.173706	4014.916504		
1403.492432	4026.530762		
1404.811157	4063.663574		
1406.129883	4095.77124		
1407.448608	4085.727539		
1408.767334	4037.567871		
1410.08606	4021.61377		
1411.404785	4064.699463		
1412.723511	4089.183594		
1414.042236	4074.085449		
1415.360962	4099.86084		
1416.679688	4123.860352		
1417.998413	4117.857422		
1419.317139	3967.190674		
1420.635864	4070.619141		
1421.95459	4067.476807		
1423.273315	4040.650879		
1424.592041	4089.675049		
1425.910767	4136.368652		
1427.229492	4146.308594		
1428.548218	4123.496582		
1429.866943	4104.387207		
1431.185669	4085.755615		
1432.504395	4080.190918		
1433.82312	4142.065918		
1435.141846	4191.529785		
1436.460571	4187.780762		
1437.779297	4094.638428		
1439.098022	4074.19873		
1440.416748	4152.39209		
1441.735474	4205.460449		
1443.054199	4135.549805		
1444.372925	4073.216797		
1445.69165	4127.063965		
1447.010376	4191.777344		
1448.329102	4180.203613		
1449.647827	4199.024902		
1450.966553	4250.860352		
1452.285278	4244.964355		
1453.604004	4222.68457		
1454.922729	4223.583496		
1456.241455	4217.238281		
1457.560181	4207.430664		
1458.878906	4115.456543		
1460.197632	4179.891602		
1461.516357	4203.537598		
1462.835083	4206.245605		
1464.153809	4215.42627		
1465.472534	4194.472168		
1466.79126	4182.599121		
1468.109985	4239.507324		
1469.428711	4163.82959		
1470.747437	4214.333984		
1472.066162	4184.100586		
1473.384888	4264.756348		
1474.703613	4220.109375		
1476.022339	4205.456543		
1477.341064	4245.442383		
1478.65979	4220.382813		
1479.978516	4211.26416		
1481.297241	4173.543945		
1482.615967	4243.365234		
1483.934692	4222.205566		
1485.253418	4279.345703		
1486.572144	4297.845215		
1487.890869	4225.26123		
1489.209595	4292.46875		
1490.52832	4215.867188		
1491.847046	4246.993164		
1493.165771	4191.693359		
1494.484497	4309.765137		
1495.803223	4295.499512		
1497.121948	4232.744629		
1498.440674	4211.28125		
1499.759399	4225.793457		
1501.078125	4264.638672		
1502.396851	4254.249512		
1503.715576	4250.480957		
1505.034302	4294.773926		
1506.353027	4291.681152		
1507.671753	4264.577637		
1508.990479	4190.987305		
1510.309204	4259.424316		
1511.62793	4347.539063		
1512.946655	4339.414551		
1514.265381	4243.108398		
1515.584106	4363.916504		
1516.902832	4359.95752		
1518.221558	4422.750488		
1519.540283	4364.698242		
1520.859009	4362.676758		
1522.177734	4337.808594		
1523.49646	4403.17334		
1524.815186	4332.888184		
1526.133911	4334.565918		
1527.452637	4358.554688		
1528.771362	4349.888184		
1530.090088	4336.520996		
1531.408813	4346.609863		
1532.727539	4377.727051		
1534.046265	4352.524414		
1535.36499	4319.449219		
1536.683716	4313.317871		
1538.002441	4391.554688		
1539.321167	4428.457031		
1540.639893	4394.290527		
1541.958618	4355.256836		
1543.277344	4286.373047		
1544.596069	4428.901855		
1545.914795	4475.291016		
1547.233521	4381.791992		
1548.552246	4381.628418		
1549.870972	4362.483887		
1551.189697	4377.037598		
1552.508423	4365.967773		
1553.827148	4389.08252		
1555.145874	4469.127441		
1556.4646	4490.948242		
1557.783325	4425.660645		
1559.102051	4381.23584		
1560.420776	4381.501465		
1561.739502	4383.438477		
1563.058228	4411.755859		
1564.376953	4434.146973		
1565.695679	4404.587402		
1567.014404	4426.515137		
1568.33313	4425.653809		
1569.651855	4477.022461		
1570.970581	4536.915039		
1572.289307	4327.666992		
1573.608032	4428.452148		
1574.926758	4254.856934		
1576.245483	4374.900391		
1577.564209	4502.958496		
1578.882935	4449.788086		
1580.20166	4451.978027		
1581.520386	4395.462402		
1582.839111	4439.54541		
1584.157837	4427.523438		
1585.476563	4374.625		
1586.795288	4398.459473		
1588.114014	4447.663086		
1589.432739	4438.724609		
1590.751465	4417.384766		
1592.07019	4466.216309		
1593.388916	4474.517578		
1594.707642	4421.550293		
1596.026367	4459.43457		
1597.345093	4466.317383		
1598.663818	4451.311035		
1599.982544	4492.944824		
1601.30127	4491.217285		
1602.619995	4480.12207		
1603.938721	4412.121582		
1605.257446	4470.452148		
1606.576172	4461.963867		
1607.894897	4485.536133		
1609.213623	4442.331543		
1610.532349	4438.047363		
1611.851074	4433.657227		
1613.1698	4542.927734		
1614.488525	4441.456543		
1615.807251	4482.29834		
1617.125977	4469.178223		
1618.444702	4576.841309		
1619.763428	4601.24707		
1621.082153	4566.751953		
1622.400879	4595.151855		
1623.719604	4615.495605		
1625.03833	4538.472168		
1626.357056	4513.572754		
1627.675781	4537.478027		
1628.994507	4525.512207		
1630.313232	4545.26123		
1631.631958	4600.816406		
1632.950684	4635.446289		
1634.269409	4548.743164		
1635.588135	4473.006836		
1636.90686	4509.25		
1638.225586	4581.98291		
1639.544312	4617.04834		
1640.863037	4562.744629		
1642.181763	4595.747559		
1643.500488	4585.966309		
1644.819214	4628.497559		
1646.137939	4643.48291		
1647.456665	4614.20166		
1648.775391	4639.602539		
1650.094116	4633.9375		
1651.412842	4609.843262		
1652.731567	4602.458008		
1654.050293	4568.216309		
1655.369019	4652.249512		
1656.687744	4568.26123		
1658.00647	4638.865723		
1659.325195	4657.533203		
1660.643921	4548.106934		
1661.962646	4653.779297		
1663.281372	4737.439941		
1664.600098	4711.375977		
1665.918823	4668.253418		
1667.237549	4670.247559		
1668.556274	4700.097656		
1669.875	4706.259277		
1671.193726	4672.580078		
1672.512451	4636.393555		
1673.831177	4650.802734		
1675.149902	4610.249512		
1676.468628	4629.995117		
1677.787354	4773.431152		
1679.106079	4731.297363		
1680.424805	4619.365234		
1681.74353	4648.164551		
1683.062256	4677.032715		
1684.380981	4730.195313		
1685.699707	4640.975586		
1687.018433	4719.822754		
1688.337158	4620.851074		
1689.655884	4717.522461		
1690.974609	4711.147461		
1692.293335	4737.094238		
1693.612061	4794.484863		
1694.930786	4621.765625		
1696.249512	4689.862793		
1697.568237	4730.887207		
1698.886963	4659.976074		
1700.205688	4747.768555		
1701.524414	4668.619629		
1702.84314	4678.084473		
1704.161865	4637.454102		
1705.480591	4734.253418		
1706.799316	4701.856445		
1708.118042	4691.485352		
1709.436768	4719.431152		
1710.755493	4690.959473		
1712.074219	4674.063477		
1713.392944	4741.12207		
1714.71167	4765.23584		
1716.030396	4668.062012		
1717.349121	4631.130371		
1718.667847	4649.174316		
1719.986572	4655.402832		
1721.305298	4714.703613		
1722.624023	4719.236328		
1723.942749	4655.703613		
1725.261475	4652.365723		
1726.5802	4699.693359		
1727.898926	4731.243652		
1729.217651	4707.160156		
1730.536377	4731.825195		
1731.855103	4765.022461		
1733.173828	4798.868652		
1734.492554	4717.279297		
1735.811279	4666.451172		
1737.130005	4817.554199		
1738.44873	4774.815918		
1739.767456	4674.537598		
1741.086182	4667.049316		
1742.404907	4783.437988		
1743.723633	4796.896973		
1745.042358	4740.684082		
1746.361084	4708.544434		
1747.67981	4726.193848		
1748.998535	4778.095703		
1750.317261	4766.552246		
1751.635986	4807.89502		
1752.954712	4873.359863		
1754.273438	4786.217773		
1755.592163	4802.223633		
1756.910889	4845.069336		
1758.229614	4884.931641		
1759.54834	4824.950195		
1760.867065	4824.527344		
1762.185791	4824.586426		
1763.504517	4835.049316		
1764.823242	4841.47168		
1766.141968	4833.246094		
1767.460693	4859.940918		
1768.779419	4846.573242		
1770.098145	4901.573242		
1771.41687	4878.188965		
1772.735596	4885.647461		
1774.054321	4872.074707		
1775.373047	4812.696777		
1776.691772	4825.70459		
1778.010498	4740.158203		
1779.329224	4818.372559		
1780.647949	4819.930664		
1781.966675	4782.196289		
1783.2854	4849.593262		
1784.604126	4839.492188		
1785.922852	4823.950684		
1787.241577	4843.387207		
1788.560303	4840.535645		
1789.879028	4823.311035		
1791.197754	4866.808594		
1792.516479	4889.124512		
1793.835205	4826.877441		
1795.153931	4798.851563		
1796.472656	4809.265625		
1797.791382	4825.455566		
1799.110107	4768.167969		
1800.428833	4823.820801		
1801.747559	4928.796875		
1803.066284	4946.519043		
1804.38501	4927.985352		
1805.703735	4931.967773		
1807.022461	4910.205566		
1808.341187	4876.720215		
1809.659912	4871.430664		
1810.978638	4838.505859		
1812.297363	4882.778809		
1813.616089	4900.481934		
1814.934814	4963.71875		
1816.25354	4880.515137		
1817.572266	4979.963379		
1818.890991	4957.155762		
1820.209717	4925.411621		
1821.528442	4901.028809		
1822.847168	4872.365234		
1824.165894	4870.657227		
1825.484619	4845.183594		
1826.803345	4856.645508		
1828.12207	4896.094727		
1829.440796	4799.917969		
1830.759521	4857.347656		
1832.078247	4893.597168		
1833.396973	4993.870605		
1834.715698	4959.851563		
1836.034424	4869.572266		
1837.353149	4933.019043		
1838.671875	4966.903809		
1839.990601	4969.579102		
1841.309326	4931.944824		
1842.628052	4980.365234		
1843.946777	5010.194824		
1845.265503	4988.845215		
1846.584229	4937.220703		
1847.902954	4969.808594		
1849.22168	4892.424316		
1850.540405	4969.226074		
1851.859131	5088.929688		
1853.177856	4876.375488		
1854.496582	4922.030273		
1855.815308	4892.885742		
1857.134033	5093.911621		
1858.452759	5005.086914		
1859.771484	5015.869629		
1861.09021	4948.720215		
1862.408936	4935.128906		
1863.727661	4959.396484		
1865.046387	4993.799805		
1866.365112	5017.629395		
1867.683838	5032.037109		
1869.002563	4947.174316		
1870.321289	4906.027832		
1871.640015	4985.229492		
1872.95874	4926.642578		
1874.277466	5078.101074		
1875.596191	4970.392578		
1876.914917	5095.380859		
1878.233643	4938.446777		
1879.552368	5004.302734		
1880.871094	5075.916016		
1882.189819	5115.211426		
1883.508545	5036.770508		
1884.827271	5124.858398		
1886.145996	5154.72168		
1887.464722	5124.398926		
1888.783447	5047.665527		
1890.102173	5161.520508		
1891.420898	5019.153809		
1892.739624	5139.146484		
1894.05835	5148.984375		
1895.377075	5071.600098		
1896.695801	5051.280273		
1898.014526	5057.793457		
1899.333252	5097.483398		
1900.651978	5143.57666		
1901.970703	5018.125		
1903.289429	5074.681641		
1904.608154	5066.154297		
1905.92688	5135.274414		
1907.245605	5142.432129		
1908.564331	5138.082031		
1909.883057	4979.097656		
1911.201782	5091.231445		
1912.520508	5091.76709		
1913.839233	5031.788086		
1915.157959	5056.395996		
1916.476685	5054.054199		
1917.79541	5081.237305		
1919.114136	5048.240234		
1920.432861	5116.691406		
1921.751587	5078.696289		
1923.070313	5114.999023		
1924.389038	5002.010254		
1925.707764	5077.021973		
1927.026489	5123.673828		
1928.345215	5150.193848		
1929.66394	5050.611328		
1930.982666	5111.100098		
1932.301392	5095.15332		
1933.620117	5123.668945		
1934.938843	5078.07666		
1936.257568	5102.891113		
1937.576294	5065.964355		
1938.89502	5057.026367		
1940.213745	4975.862793		
1941.532471	5164.195313		
1942.851196	5061.601563		
1944.169922	5141.171387		
1945.488647	5089.966309		
1946.807373	5244.213867		
1948.126099	5161.512207		
1949.444824	5136.692383		
1950.76355	5104.655762		
1952.082275	5151.67627		
1953.401001	5095.738281		
1954.719727	5101.251953		
1956.038452	5134.369629		
1957.357178	5130.917969		
1958.675903	5052.201172		
1959.994629	5242.278809		
1961.313354	5151.006836		
1962.63208	5089.063477		
1963.950806	5104.129883		
1965.269531	5094.513672		
1966.588257	5112.519531		
1967.906982	5084.425293		
1969.225708	5127.988281		
1970.544434	5125.058594		
1971.863159	5203.14502		
1973.181885	5177.413574		
1974.50061	5217.287598		
1975.819336	5243.124512		
1977.138062	5164.398926		
1978.456787	5103.912109		
1979.775513	5166.126465		
1981.094238	5263.004395		
1982.412964	5243.75		
1983.731689	5192.667969		
1985.050415	5146.833496		
1986.369141	5248.217285		
1987.687866	5295.487305		
1989.006592	5261.611816		
1990.325317	5222.994629		
1991.644043	5188.912598		
1992.962769	5254.74707		
1994.281494	5264.462402		
1995.60022	5221.837891		
1996.918945	5271.818359		
1998.237671	5309.685547		
1999.556396	5283.60791		
2000.875122	5288.781738		
2002.193848	5260.372559		
2003.512573	5220.9375		
2004.831299	5255.662598		
2006.150024	5261.186523		
2007.46875	5253.675781		
2008.787476	5290.660156		
2010.106201	5283.510742		
2011.424927	5298.020996		
2012.743652	5267.89209		
2014.062378	5281.485352		
2015.381104	5337.667969		
2016.699829	5363.473145		
2018.018555	5322.67334		
2019.33728	5249.200195		
2020.656006	5215.476563		
2021.974731	5233.349121		
2023.293457	5353.354492		
2024.612183	5339.582031		
2025.930908	5336.435547		
2027.249634	5266.533203		
2028.568359	5371.726563		
2029.887085	5362.52002		
2031.205811	5303.671875		
2032.524536	5250.192383		
2033.843262	5326.276367		
2035.161987	5299.635254		
2036.480713	5298.529785		
2037.799438	5276.804688		
2039.118164	5272.047363		
2040.43689	5344.771484		
2041.755615	5288.680664		
2043.074341	5393.970215		
2044.393066	5183.183105		
2045.711792	5334.655273		
2047.030518	5339.687988		
2048.349121	5313.739258		
2049.667725	5300.605469		
2050.986328	5309.054688		
2052.304932	5235.655762		
2053.623535	5335.515137		
2054.942139	5371.851563		
2056.260742	5348.579102		
2057.579346	5316.339844		
2058.897949	5375.631348		
2060.216553	5280.586426		
2061.535156	5335.455078		
2062.85376	5414.285645		
2064.172363	5286.517578		
2065.490967	5204.718262		
2066.80957	5286.591797		
2068.128174	5385.484863		
2069.446777	5383.443359		
2070.765381	5256.11084		
2072.083984	5331.165527		
2073.402588	5321.034668		
2074.721191	5317.206543		
2076.039795	5278.325684		
2077.358398	5333.487305		
2078.677002	5366.922363		
2079.995605	5386.947754		
2081.314209	5427.341797		
2082.632813	5301.809082		
2083.951416	5331.774414		
2085.27002	5368.835938		
2086.588623	5348.861816		
2087.907227	5407.280762		
2089.22583	5358.58252		
2090.544434	5345.994629		
2091.863037	5328.333496		
2093.181641	5373.016113		
2094.500244	5367.079102		
2095.818848	5468.776855		
2097.137451	5428.389648		
2098.456055	5346.763672		
2099.774658	5544.391113		
2101.093262	5507.830566		
2102.411865	5481.586914		
2103.730469	5382.952148		
2105.049072	5431.14209		
2106.367676	5531.505371		
2107.686279	5412.260254		
2109.004883	5395.943848		
2110.323486	5558.341309		
2111.64209	5474.582031		
2112.960693	5490.220703		
2114.279297	5472.960938		
2115.5979	5466.611816		
2116.916504	5432.58252		
2118.235107	5393.449707		
2119.553711	5429.540527		
2120.872314	5383.943848		
2122.190918	5414.957031		
2123.509521	5455.490723		
2124.828125	5394.880859		
2126.146729	5427.925781		
2127.465332	5463.529785		
2128.783936	5479.757813		
2130.102539	5559.588867		
2131.421143	5568.437988		
2132.739746	5608.882813		
2134.05835	5572.130371		
2135.376953	5601.738281		
2136.695557	5469.882324		
2138.01416	5474.670898		
2139.332764	5590.101074		
2140.651367	5412.84082		
2141.969971	5571.262207		
2143.288574	5547.478516		
2144.607178	5520.333496		
2145.925781	5452.631348		
2147.244385	5464.224121		
2148.562988	5464.248047		
2149.881592	5549.131348		
2151.200195	5480.362793		
2152.518799	5534.652832		
2153.837402	5574.49707		
2155.156006	5543.299316		
2156.474609	5463.675293		
2157.793213	5513.110352		
2159.111816	5525.350586		
2160.43042	5495.901367		
2161.749023	5527.129395		
2163.067627	5530.296387		
2164.38623	5549.212402		
2165.704834	5536.904785		
2167.023438	5508.407715		
2168.342041	5554.491211		
2169.660645	5565.771484		
2170.979248	5575.211426		
2172.297852	5488.530762		
2173.616455	5554.694824		
2174.935059	5468.614258		
2176.253662	5577.750977		
2177.572266	5539.556152		
2178.890869	5571.415527		
2180.209473	5509.006836		
2181.528076	5557.223633		
2182.84668	5495.130371		
2184.165283	5493.184082		
2185.483887	5565.741699		
2186.80249	5504.529297		
2188.121094	5412.256348		
2189.439697	5510.365723		
2190.758301	5522.960449		
2192.076904	5623.90625		
2193.395508	5567.106445		
2194.714111	5513.557129		
2196.032715	5509.842285		
2197.351318	5534.133789		
2198.669922	5515.401855		
2199.988525	5523.546387		
2201.307129	5587.549805		
2202.625732	5642.730469		
2203.944336	5617.141113		
2205.262939	5474.936523		
2206.581543	5523.39209		
2207.900146	5563.291992		
2209.21875	5524.602539		
2210.537354	5646.603027		
2211.855957	5558.546875		
2213.174561	5658.296387		
2214.493164	5565.139648		
2215.811768	5570.395508		
2217.130371	5640.174316		
2218.448975	5624.244629		
2219.767578	5605.640137		
2221.086182	5627.256348		
2222.404785	5673.018555		
2223.723389	5585.799805		
2225.041992	5514.726074		
2226.360596	5497.633301		
2227.679199	5580.755859		
2228.997803	5534.677246		
2230.316406	5600.834961		
2231.63501	5600.791504		
2232.953613	5574.000977		
2234.272217	5584.47168		
2235.59082	5674.118652		
2236.909424	5607.481934		
2238.228027	5721.811523		
2239.546631	5661.411133		
2240.865234	5575.157715		
2242.183838	5664.891113		
2243.502441	5565.720703		
2244.821045	5615.335449		
2246.139648	5613.094727		
2247.458252	5608.767578		
2248.776855	5584.856445		
2250.095459	5695.480957		
2251.414063	5539.446289		
2252.732666	5553.475098		
2254.05127	5661.90332		
2255.369873	5654.53418		
2256.688477	5713.447266		
2258.00708	5758.642578		
2259.325684	5705.09082		
2260.644287	5602.251465		
2261.962891	5618.961914		
2263.281494	5726.150879		
2264.600098	5694.192871		
2265.918701	5689.827148		
2267.237305	5622.345215		
2268.555908	5681.535156		
2269.874512	5624.962402		
2271.193115	5673.565918		
2272.511719	5626.604004		
2273.830322	5595.187012		
2275.148926	5689.709961		
2276.467529	5710.204102		
2277.786133	5675.459961		
2279.104736	5658.831055		
2280.42334	5674.358887		
2281.741943	5685.487305		
2283.060547	5679.689941		
2284.37915	5644.511719		
2285.697754	5638.195313		
2287.016357	5651.076172		
2288.334961	5707.791016		
2289.653564	5617.013672		
2290.972168	5619.606445		
2292.290771	5626.530273		
2293.609375	5732.488281		
2294.927979	5652.374512		
2296.246582	5585.544434		
2297.565186	5697.34668		
2298.883789	5664.924316		
2300.202393	5728.762207		
2301.520996	5593.273438		
2302.8396	5644.155762		
2304.158203	5735.913086		
2305.476807	5764.683594		
2306.79541	5645.141602		
2308.114014	5633.071289		
2309.432617	5677.283691		
2310.751221	5692.291016		
2312.069824	5744.394043		
2313.388428	5630.303711		
2314.707031	5604.334473		
2316.025635	5637.884277		
2317.344238	5582.88916		
2318.662842	5626.353027		
2319.981445	5652.995605		
2321.300049	5589.197754		
2322.618652	5593.913574		
2323.937256	5627.90918		
2325.255859	5698.382813		
2326.574463	5660.154297		
2327.893066	5652.939941		
2329.21167	5684.394043		
2330.530273	5647.42627		
2331.848877	5683.944336		
2333.16748	5683.591797		
2334.486084	5727.089355		
2335.804688	5731.988281		
2337.123291	5792.707031		
2338.441895	5706.160645		
2339.760498	5642.716797		
2341.079102	5646.428223		
2342.397705	5743.533203		
2343.716309	5701.17627		
2345.034912	5738.756348		
2346.353516	5744.927246		
2347.672119	5739.615723		
2348.990723	5718.917969		
2350.309326	5701.84668		
2351.62793	5725.245605		
2352.946533	5663.514648		
2354.265137	5695.898926		
2355.58374	5686.358398		
2356.902344	5787.237793		
2358.220947	5795.536621		
2359.539551	5753.955566		
2360.858154	5736.9375		
2362.176758	5797.503906		
2363.495361	5830.458008		
2364.813965	5806.462891		
2366.132568	5755.628418		
2367.451172	5854.002441		
2368.769775	5776.371582		
2370.088379	5741.621582		
2371.406982	5745.770996		
2372.725586	5773.586914		
2374.044189	5792.991211		
2375.362793	5800.388184		
2376.681396	5779.921387		
2378.0	5934.318359		
2379.318604	5823.865723		
2380.637207	5818.04834		
2381.955811	5819.959473		
2383.274414	5904.037598		
2384.593018	5776.677246		
2385.911621	5803.060059		
2387.230225	5821.402344		
2388.548828	5834.782227		
2389.867432	5842.551758		
2391.186035	5894.384277		
2392.504639	5848.148926		
2393.823242	5740.176758		
2395.141846	5679.030273		
2396.460449	5726.42041		
2397.779053	5718.126465		
2399.097656	5925.419922		
2400.41626	5822.736328		
2401.734863	5925.79834		
2403.053467	5942.266602		
2404.37207	5843.147949		
2405.690674	5736.62793		
2407.009277	5797.691895		
2408.327881	5883.767578		
2409.646484	5762.027832		
2410.965088	5805.086426		
2412.283691	5739.508301		
2413.602295	5731.908691		
2414.920898	5744.320801		
2416.239502	5868.861816		
2417.558105	5753.419434		
2418.876709	5866.270996		
2420.195313	5768.722168		
2421.513916	5813.734863		
2422.83252	5885.174805		
2424.151123	5862.87793		
2425.469727	5845.88623		
2426.78833	5790.352539		
2428.106934	5723.164551		
2429.425537	5760.006836		
2430.744141	5760.873535		
2432.062744	5813.208496		
2433.381348	5855.105469		
2434.699951	5832.637207		
2436.018555	5906.446289		
2437.337158	5802.223145		
2438.655762	5858.674316		
2439.974365	5853.209961		
2441.292969	5879.596191		
2442.611572	5777.609863		
2443.930176	5814.563965		
2445.248779	5776.421387		
2446.567383	5773.411133		
2447.885986	5882.741211		
2449.20459	5747.630859		
2450.523193	5729.826172		
2451.841797	5763.89502		
2453.1604	5799.118164		
2454.479004	5868.16748		
2455.797607	5825.772949		
2457.116211	5800.576172		
2458.434814	5874.143555		
2459.753418	5877.357422		
2461.072021	5843.697754		
2462.390625	5790.315918		
2463.709229	5861.90332		
2465.027832	5907.273926		
2466.346436	5967.250977		
2467.665039	5918.451172		
2468.983643	5878.283203		
2470.302246	5926.694824		
2471.62085	5859.29541		
2472.939453	5777.037109		
2474.258057	5890.132813		
2475.57666	5917.244141		
2476.895264	5886.612305		
2478.213867	5800.458984		
2479.532471	5896.438965		
2480.851074	5908.658203		
2482.169678	5874.461426		
2483.488281	5927.977051		
2484.806885	5808.301758		
2486.125488	5748.795898		
2487.444092	5941.654785		
2488.762695	5933.053711		
2490.081299	5836.225098		
2491.399902	5828.442383		
2492.718506	5867.88623		
2494.037109	5904.045898		
2495.355713	5899.149902		
2496.674316	5911.373535		
2497.99292	5964.23291		
2499.311523	5958.461914		
2500.630127	5974.501465		
2501.94873	6033.411621		
2503.267334	5922.299805		
2504.585938	5863.238281		
2505.904541	5943.348145		
2507.223145	5887.727539		
2508.541748	5924.355957		
2509.860352	5901.663086		
2511.178955	6010.257324		
2512.497559	5987.939453		
2513.816162	6038.86084		
2515.134766	5907.66748		
2516.453369	6047.378906		
2517.771973	5890.28418		
2519.090576	5801.100586		
2520.40918	5905.110352		
2521.727783	5831.465332		
2523.046387	5974.750977		
2524.36499	6072.35498		
2525.683594	6019.339355		
2527.002197	5933.427246		
2528.320801	5842.793457		
2529.639404	5895.373535		
2530.958008	5923.447266		
2532.276611	6035.450195		
2533.595215	5944.844727		
2534.913818	5886.090332		
2536.232422	5805.760742		
2537.551025	5826.427734		
2538.869629	5859.141113		
2540.188232	5976.506836		
2541.506836	5906.46582		
2542.825439	5959.10791		
2544.144043	5819.046875		
2545.462646	5873.314453		
2546.78125	5882.403809		
2548.099854	5871.089355		
2549.418457	5882.223633		
2550.737061	5906.612793		
2552.055664	5918.361328		
2553.374268	5845.087891		
2554.692871	5822.75		
2556.011475	5888.888184		
2557.330078	5935.480469		
2558.648682	5907.480957		
2559.967285	5832.66748		
2561.285889	5877.533203		
2562.604492	5842.162598		
2563.923096	5894.05957		
2565.241699	6010.223145		
2566.560303	5961.150879		
2567.878906	5936.626465		
2569.19751	5845.118652		
2570.516113	5885.943848		
2571.834717	5864.179688		
2573.15332	5900.083496		
2574.471924	5808.108398		
2575.790527	5924.726074		
2577.109131	5994.314453		
2578.427734	5970.70166		
2579.746338	5893.701172		
2581.064941	5905.468262		
2582.383545	5927.369141		
2583.702148	5965.049805		
2585.020752	5942.176758		
2586.339355	6004.794434		
2587.657959	5877.757324		
2588.976563	5934.375		
2590.295166	5978.457031		
2591.61377	5959.005859		
2592.932373	5944.768066		
2594.250977	5952.800781		
2595.56958	5988.837891		
2596.888184	6039.483398		
2598.206787	6049.027344		
2599.525391	5944.115234		
2600.843994	5942.416504		
2602.162598	5937.535645		
2603.481201	5888.772949		
2604.799805	6047.327637		
2606.118408	6027.595215		
2607.437012	6022.243652		
2608.755615	5991.829102		
2610.074219	5943.65332		
2611.392822	6021.592285		
2612.711426	5967.827637		
2614.030029	5914.566895		
2615.348633	5973.580078		
2616.667236	5964.871582		
2617.98584	6043.546387		
2619.304443	6066.482422		
2620.623047	6057.220215		
2621.94165	6098.411621		
2623.260254	6057.240234		
2624.578857	6126.152832		
2625.897461	6018.955078		
2627.216064	6044.369141		
2628.534668	6080.655762		
2629.853271	6001.189453		
2631.171875	6050.15332		
2632.490479	6135.999023		
2633.809082	6086.264648		
2635.127686	6024.480957		
2636.446289	5998.083496		
2637.764893	6124.666016		
2639.083496	5991.755859		
2640.4021	5972.543457		
2641.720703	6192.422363		
2643.039307	6115.933594		
2644.35791	6071.98291		
2645.676514	6085.425781		
2646.995117	6016.26416		
2648.313721	6018.465332		
2649.632324	6091.160156		
2650.950928	6148.291992		
2652.269531	6199.421387		
2653.588135	6074.610352		
2654.906738	6137.582031		
2656.225342	6054.250488		
2657.543945	6066.40625		
2658.862549	6007.289551		
2660.181152	6104.26709		
2661.499756	6225.711914		
2662.818359	6181.20166		
2664.136963	6031.602051		
2665.455566	6055.958008		
2666.77417	6121.712891		
2668.092773	6078.138184		
2669.411377	6091.174316		
2670.72998	6080.813477		
2672.048584	6052.034668		
2673.367188	6094.812012		
2674.685791	6093.605957		
2676.004395	6161.094727		
2677.322998	6131.623047		
2678.641602	5996.288574		
2679.960205	6040.616211		
2681.278809	6135.416016		
2682.597412	6135.742676		
2683.916016	6255.233887		
2685.234619	6179.532227		
2686.553223	6027.230469		
2687.871826	6220.970215		
2689.19043	6103.271973		
2690.509033	6091.125488		
2691.827637	6093.252441		
2693.14624	6054.697754		
2694.464844	6134.888184		
2695.783447	6152.697754		
2697.102051	6154.108887		
2698.420654	6199.178711		
2699.739258	6280.102051		
2701.057861	6044.117676		
2702.376465	6121.728516		
2703.695068	6082.269531		
2705.013672	6169.32959		
2706.332275	6139.941406		
2707.650879	6118.980957		
2708.969482	6066.588379		
2710.288086	6050.885742		
2711.606689	6041.410156		
2712.925293	6097.770508		
2714.243896	6085.415039		
2715.5625	6057.217773		
2716.881104	6086.066406		
2718.199707	6173.998535		
2719.518311	6193.289063		
2720.836914	6171.316895		
2722.155518	6048.976074		
2723.474121	6045.26416		
2724.792725	6173.340332		
2726.111328	6086.763672		
2727.429932	6213.535645		
2728.748535	6178.157715		
2730.067139	6105.091797		
2731.385742	6033.595703		
2732.704346	6165.323242		
2734.022949	6055.625488		
2735.341553	6110.84375		
2736.660156	6113.399414		
2737.97876	6098.206055		
2739.297363	6067.803711		
2740.615967	6121.668457		
2741.93457	6091.664551		
2743.253174	6070.963379		
2744.571777	6127.432129		
2745.890381	6071.625		
2747.208984	6025.121094		
2748.527588	6138.957031		
2749.846191	6167.95459		
2751.164795	6087.547852		
2752.483398	6106.595703		
2753.802002	6165.836426		
2755.120605	6055.02002		
2756.439209	6055.686523		
2757.757813	6151.327148		
2759.076416	6160.356934		
2760.39502	6152.913574		
2761.713623	6112.414063		
2763.032227	6125.861328		
2764.35083	6038.138672		
2765.669434	6127.561035		
2766.988037	6023.983887		
2768.306641	6121.630859		
2769.625244	6118.707031		
2770.943848	6123.432129		
2772.262451	6030.297363		
2773.581055	6098.539063		
2774.899658	6236.498047		
2776.218262	6114.835449		
2777.536865	6018.255859		
2778.855469	6120.39209		
2780.174072	6143.10498		
2781.492676	6148.571777		
2782.811279	6119.981934		
2784.129883	6145.468262		
2785.448486	6060.506836		
2786.76709	6143.216309		
2788.085693	6052.304199		
2789.404297	6054.975098		
2790.7229	6153.941895		
2792.041504	6176.282715		
2793.360107	6201.266602		
2794.678711	6193.345215		
2795.997314	6116.961426		
2797.315918	6238.004883		
2798.634521	6172.185547		
2799.953125	6118.300293		
2801.271729	6127.991211		
2802.590332	6159.878418		
2803.908936	6092.066895		
2805.227539	6290.177734		
2806.546143	6138.597656		
2807.864746	6258.484863		
2809.18335	6145.543457		
2810.501953	6084.894531		
2811.820557	6165.686035		
2813.13916	6196.072266		
2814.457764	6170.653809		
2815.776367	6195.932617		
2817.094971	6130.089844		
2818.413574	6136.724121		
2819.732178	6113.034668		
2821.050781	6095.970703		
2822.369385	6071.694336		
2823.687988	6150.962891		
2825.006592	6371.470703		
2826.325195	6177.029297		
2827.643799	6193.297852		
2828.962402	6211.567383		
2830.281006	6192.943848		
2831.599609	6212.071289		
2832.918213	6238.852539		
2834.236816	6176.772461		
2835.55542	6120.007324		
2836.874023	6270.172363		
2838.192627	6180.652344		
2839.51123	6152.972168		
2840.829834	6219.441406		
2842.148438	6172.236816		
2843.467041	6146.060547		
2844.785645	6253.703613		
2846.104248	6195.143066		
2847.422852	6212.507324		
2848.741455	6244.55127		
2850.060059	6176.462402		
2851.378662	6143.476563		
2852.697266	6304.834473		
2854.015869	6269.473633		
2855.334473	6235.82666		
2856.653076	6233.029297		
2857.97168	6164.819336		
2859.290283	6158.208984		
2860.608887	6206.996094		
2861.92749	6111.395508		
2863.246094	6169.733398		
2864.564697	6107.34668		
2865.883301	6307.736328		
2867.201904	6200.10791		
2868.520508	6235.341797		
2869.839111	6202.769531		
2871.157715	6318.315918		
2872.476318	6191.998535		
2873.794922	6222.639648		
2875.113525	6234.15625		
2876.432129	6196.365723		
2877.750732	6270.890625		
2879.069336	6206.23291		
2880.387939	6244.09668		
2881.706543	6267.234375		
2883.025146	6341.824707		
2884.34375	6272.347168		
2885.662354	6181.896973		
2886.980957	6199.327637		
2888.299561	6277.321289		
2889.618164	6266.480957		
2890.936768	6310.738281		
2892.255371	6214.806152		
2893.573975	6189.378906		
2894.892578	6165.236328		
2896.211182	6178.430664		
2897.529785	6286.415039		
2898.848389	6309.776855		
2900.166992	6358.960938		
2901.485596	6253.131836		
2902.804199	6266.377441		
2904.122803	6256.541992		
2905.441406	6285.535156		
2906.76001	6322.37793		
2908.078613	6296.470703		
2909.397217	6299.606934		
2910.71582	6297.204102		
2912.034424	6339.42334		
2913.353027	6314.337402		
2914.671631	6288.254395		
2915.990234	6357.07373		
2917.308838	6266.973145		
2918.627441	6250.95752		
2919.946045	6212.869629		
2921.264648	6316.42334		
2922.583252	6300.714844		
2923.901855	6287.956055		
2925.220459	6383.663086		
2926.539063	6328.625977		
2927.857666	6346.720703		
2929.17627	6272.146973		
2930.494873	6210.580566		
2931.813477	6280.155273		
2933.13208	6226.908203		
2934.450684	6299.739746		
2935.769287	6250.096191		
2937.087891	6200.580078		
2938.406494	6312.821289		
2939.725098	6334.713379		
2941.043701	6371.609863		
2942.362305	6320.629395		
2943.680908	6330.578125		
2944.999512	6442.013672		
2946.318115	6354.96875		
2947.636719	6294.463867		
2948.955322	6320.819824		
2950.273926	6399.252441		
2951.592529	6263.525879		
2952.911133	6361.247559		
2954.229736	6394.715332		
2955.54834	6328.645996		
2956.866943	6386.665527		
2958.185547	6528.217773		
2959.50415	6514.339355		
2960.822754	6300.118652		
2962.141357	6415.193359		
2963.459961	6375.271484		
2964.778564	6290.916992		
2966.097168	6400.265137		
2967.415771	6356.717773		
2968.734375	6314.779785		
2970.052979	6358.058105		
2971.371582	6320.022461		
2972.690186	6258.55127		
2974.008789	6317.492188		
2975.327393	6181.617188		
2976.645996	6366.33252		
2977.9646	6362.940918		
2979.283203	6322.079102		
2980.601807	6314.436523		
2981.92041	6334.642578		
2983.239014	6309.016113		
2984.557617	6239.339355		
2985.876221	6271.908691		
2987.194824	6354.483887		
2988.513428	6416.742676		
2989.832031	6290.047363		
2991.150635	6344.944336		
2992.469238	6356.834961		
2993.787842	6295.507813		
2995.106445	6394.816406		
2996.425049	6411.164063		
2997.743652	6353.118652		
2999.062256	6270.541992		
3000.380859	6258.38623		
